# DMC at SINQ, PSI: Sample name = Unknown, wavelength = 2.450 AA, T = 0.0 K
# Filelist='dmc:2021:565,575,578,579,585-587'
#   0.000   0.125 132.000     992., sample="Unknown"
0.000000000000000000e+00  2.340164040284494113e+05  4.708665340973168895e+03
1.250000000000000000e-01  2.324032808988897887e+05  3.272312082079496122e+03
2.500000000000000000e-01  2.321645114908087417e+05  2.113645607352958905e+03
3.750000000000000000e-01  2.321564518813448085e+05  2.116029058716150757e+03
5.000000000000000000e-01  2.322644025570277008e+05  1.602204534897944313e+03
6.250000000000000000e-01  2.365439499830010172e+05  1.604471556335309288e+03
7.500000000000000000e-01  2.334732786326540518e+05  1.329603801234956563e+03
8.750000000000000000e-01  2.297004671985565219e+05  1.262071428546842526e+03
1.000000000000000000e+00  2.321124683961152332e+05  1.276480564178502391e+03
1.125000000000000000e+00  2.322694766870154126e+05  1.075264036272323665e+03
1.250000000000000000e+00  2.313253217162883666e+05  1.123746414955059890e+03
1.375000000000000000e+00  2.349315878628517385e+05  9.894422087301053352e+02
1.500000000000000000e+00  2.327954510028286313e+05  1.044829630371205212e+03
1.625000000000000000e+00  2.333192105226264102e+05  9.353443675276016620e+02
1.750000000000000000e+00  2.331261726234902162e+05  9.780551634425346492e+02
1.875000000000000000e+00  2.327630581574385869e+05  8.738642565262181279e+02
2.000000000000000000e+00  2.345219634341427009e+05  9.125230069565857320e+02
2.125000000000000000e+00  2.304329806196065911e+05  8.166198169072321207e+02
2.250000000000000000e+00  2.327944280689864536e+05  8.194599666109478449e+02
2.375000000000000000e+00  2.321578581194396538e+05  7.926154312822803831e+02
2.500000000000000000e+00  2.326573478858035523e+05  7.663408554059866447e+02
2.625000000000000000e+00  2.318019377249834652e+05  7.859860717776256251e+02
2.750000000000000000e+00  2.292289296515017631e+05  7.255533397107755036e+02
2.875000000000000000e+00  2.302921075559791643e+05  7.418941155963015035e+02
3.000000000000000000e+00  2.301969699309365533e+05  7.061456082672568755e+02
3.125000000000000000e+00  2.283737186332849087e+05  6.918700548456622528e+02
3.250000000000000000e+00  2.285378205470699468e+05  6.951224343404217052e+02
3.375000000000000000e+00  2.261827994424776407e+05  6.578612460411757183e+02
3.500000000000000000e+00  2.295713709123207955e+05  6.453294803611669295e+02
3.625000000000000000e+00  2.284287496876894147e+05  6.355205382241447296e+02
3.750000000000000000e+00  2.268586780228663119e+05  6.331822053529685945e+02
3.875000000000000000e+00  2.260249030058730277e+05  6.106306134400141445e+02
4.000000000000000000e+00  2.281672043873256189e+05  6.193134289979476534e+02
4.125000000000000000e+00  2.258232199780978845e+05  5.970879777574564287e+02
4.250000000000000000e+00  2.247021253317281662e+05  5.932079407840794829e+02
4.375000000000000000e+00  2.231271455575441651e+05  5.867887500323574841e+02
4.500000000000000000e+00  2.255020965165129455e+05  5.611223893783716221e+02
4.625000000000000000e+00  2.245698515910975693e+05  5.760587859512886553e+02
4.750000000000000000e+00  2.243627406812038389e+05  5.425344063487235644e+02
4.875000000000000000e+00  2.228840653116745234e+05  5.622240148478242645e+02
5.000000000000000000e+00  2.223994485213585722e+05  5.187322290345842930e+02
5.125000000000000000e+00  2.232183179577273841e+05  5.434272344980233811e+02
5.250000000000000000e+00  2.220495304351300874e+05  5.227242152349029993e+02
5.375000000000000000e+00  2.228017609571576468e+05  5.368826239250876142e+02
5.500000000000000000e+00  2.209830893270745873e+05  5.104910738799237038e+02
5.625000000000000000e+00  2.215111176328063302e+05  4.954415094172474028e+02
5.750000000000000000e+00  2.192785583391842374e+05  5.059543985563709043e+02
5.875000000000000000e+00  2.197520373969902867e+05  4.856686222205605077e+02
6.000000000000000000e+00  2.196555147568719403e+05  5.026205115528589999e+02
6.125000000000000000e+00  2.186816460752212733e+05  4.738967272089971061e+02
6.250000000000000000e+00  2.185109982223245606e+05  4.823583580942514573e+02
6.375000000000000000e+00  2.188109240012905502e+05  4.642570943114086504e+02
6.500000000000000000e+00  2.181115189924317528e+05  4.712238995671337420e+02
6.625000000000000000e+00  2.162870371618203353e+05  4.509533773411655488e+02
6.750000000000000000e+00  2.170015678330688970e+05  4.581662193172489310e+02
6.875000000000000000e+00  2.157436935497551167e+05  4.394384505600394277e+02
7.000000000000000000e+00  2.158641110589804593e+05  4.500177917743474723e+02
7.125000000000000000e+00  2.143954994696501235e+05  4.375163252400786291e+02
7.250000000000000000e+00  2.102860552191371971e+05  4.446638751733517552e+02
7.375000000000000000e+00  2.078451512182750157e+05  4.497485517718657206e+02
7.500000000000000000e+00  2.060622462802747323e+05  4.483737339206609249e+02
7.625000000000000000e+00  2.035560082356368075e+05  4.402912018619031755e+02
7.750000000000000000e+00  2.001344385856624285e+05  4.402889140462538649e+02
7.875000000000000000e+00  1.988801979031673400e+05  4.311356099859025903e+02
8.000000000000000000e+00  1.982476328355280857e+05  4.348529280492572866e+02
8.125000000000000000e+00  1.974177436242031981e+05  4.294471426468779214e+02
8.250000000000000000e+00  1.963600171132437827e+05  4.238823034156347944e+02
8.375000000000000000e+00  1.973181161063018080e+05  4.390976987354732728e+02
8.500000000000000000e+00  1.957260801461847150e+05  4.214516789507208614e+02
8.625000000000000000e+00  1.951913201042072906e+05  4.289245825021452561e+02
8.750000000000000000e+00  1.951182251299974159e+05  4.236478241342178421e+02
8.875000000000000000e+00  1.949833699777871079e+05  4.281689641486676692e+02
9.000000000000000000e+00  1.990692108087362722e+05  4.249465651093178167e+02
9.125000000000000000e+00  1.998884515412210312e+05  4.069512078241994573e+02
9.250000000000000000e+00  2.031337967158645624e+05  4.379735141036778145e+02
9.375000000000000000e+00  2.029648933385242999e+05  4.047955195993045550e+02
9.500000000000000000e+00  2.054185326883896487e+05  4.448540061831157004e+02
9.625000000000000000e+00  2.064776730774345051e+05  4.136267938007977705e+02
9.750000000000000000e+00  2.047686349297037232e+05  4.302042460479474357e+02
9.875000000000000000e+00  2.034516289771218144e+05  4.143445832225091863e+02
1.000000000000000000e+01  2.018433542440865131e+05  4.148223269848833183e+02
1.012500000000000000e+01  1.999416900464762002e+05  4.190811714773152516e+02
1.025000000000000000e+01  1.984082972649045696e+05  4.111896989310980075e+02
1.037500000000000000e+01  1.986617463357389497e+05  4.198320255246608212e+02
1.050000000000000000e+01  1.966075192254084104e+05  3.960433824706144605e+02
1.062500000000000000e+01  1.977302860087037843e+05  4.163194957811711561e+02
1.075000000000000000e+01  1.956002935139432375e+05  4.017619099734339443e+02
1.087500000000000000e+01  1.959776843446063285e+05  4.143624810360634001e+02
1.100000000000000000e+01  1.940224730276596383e+05  4.075032390951517982e+02
1.112500000000000000e+01  1.931384194026537298e+05  4.072674847516953491e+02
1.125000000000000000e+01  1.920673360986750340e+05  4.135503953732903142e+02
1.137500000000000000e+01  1.905047964110333996e+05  4.085189702235701930e+02
1.150000000000000000e+01  1.907006924315978831e+05  4.087558255100843212e+02
1.162500000000000000e+01  1.885993360713571019e+05  4.073609817924918275e+02
1.175000000000000000e+01  1.891885123930948030e+05  4.088682486495499120e+02
1.187500000000000000e+01  1.883773314013666823e+05  3.975169683779245702e+02
1.200000000000000000e+01  1.874799060267759487e+05  4.093838076446934906e+02
1.212500000000000000e+01  1.880654735101792903e+05  3.932866675152426410e+02
1.225000000000000000e+01  1.888999464037371799e+05  4.202032651743836027e+02
1.237500000000000000e+01  1.884500868664139125e+05  3.956652483087028145e+02
1.250000000000000000e+01  1.887139163841415138e+05  4.211189371845459846e+02
1.262500000000000000e+01  1.882384450203044107e+05  4.054669588014602937e+02
1.275000000000000000e+01  1.874461785591826483e+05  4.106447643935927658e+02
1.287500000000000000e+01  1.886041138881359657e+05  4.015644866791213872e+02
1.300000000000000000e+01  1.910711452748288866e+05  4.221414940852641848e+02
1.312500000000000000e+01  1.891153179593753885e+05  4.075827422912817042e+02
1.325000000000000000e+01  1.914443243670719385e+05  4.078928474611192883e+02
1.337500000000000000e+01  1.938994119454860920e+05  4.151184241756006372e+02
1.350000000000000000e+01  1.952276420509549789e+05  4.057051085118332594e+02
1.362500000000000000e+01  2.012517673115106008e+05  4.350954807552126908e+02
1.375000000000000000e+01  2.063773337999559590e+05  4.183408369491922372e+02
1.387500000000000000e+01  2.139007046301434166e+05  4.469738825141614598e+02
1.400000000000000000e+01  2.167783291347487248e+05  4.380218346272937424e+02
1.412500000000000000e+01  2.230335276849227084e+05  4.518813114230330257e+02
1.425000000000000000e+01  2.232881299989689724e+05  4.425123028350850518e+02
1.437500000000000000e+01  2.259599315536014037e+05  4.627053728244533204e+02
1.450000000000000000e+01  2.217098031092116144e+05  4.082063696022976274e+02
1.462500000000000000e+01  2.222058717532987939e+05  4.620763289099030544e+02
1.475000000000000000e+01  2.186399038405510073e+05  4.435452249231663586e+02
1.487500000000000000e+01  2.135976134058926546e+05  4.397974201830958236e+02
1.500000000000000000e+01  2.101156637164654385e+05  4.403160507125725758e+02
1.512500000000000000e+01  2.040724389380426728e+05  4.282758658657647288e+02
1.525000000000000000e+01  2.007621528637010488e+05  4.318364469616472547e+02
1.537500000000000000e+01  1.981165822031659482e+05  4.243765301402445971e+02
1.550000000000000000e+01  1.962740454545627290e+05  4.341719271192668543e+02
1.562500000000000000e+01  1.952455073042025324e+05  4.111033057987671100e+02
1.575000000000000000e+01  1.933428706420192902e+05  4.298259736204495880e+02
1.587500000000000000e+01  1.941009477168300655e+05  4.153652637303965776e+02
1.600000000000000000e+01  1.946363135567802819e+05  4.169120401025759861e+02
1.612500000000000000e+01  1.943290996436640853e+05  4.130857970027988131e+02
1.625000000000000000e+01  1.949896399250357063e+05  4.241050334753686570e+02
1.637500000000000000e+01  1.908859654214687180e+05  4.126581735288424966e+02
1.650000000000000000e+01  1.903339446930115810e+05  4.208333382681921648e+02
1.662500000000000000e+01  1.885300203125462576e+05  4.096253082569016328e+02
1.675000000000000000e+01  1.869861880615711852e+05  4.154130748687703090e+02
1.687500000000000000e+01  1.844940051167493220e+05  4.061981189278748730e+02
1.700000000000000000e+01  1.829236163059774844e+05  4.123259623741921018e+02
1.712500000000000000e+01  1.826077048704735062e+05  4.116923191046302009e+02
1.725000000000000000e+01  1.820831219154625724e+05  4.092685692769114780e+02
1.737500000000000000e+01  1.805411231246692187e+05  4.003237365575683384e+02
1.750000000000000000e+01  1.817093341363658838e+05  3.975315831132233484e+02
1.762500000000000000e+01  1.808171177057039458e+05  4.105622136220588914e+02
1.775000000000000000e+01  1.811756574473851360e+05  3.976508011467284973e+02
1.787500000000000000e+01  1.812701978612036037e+05  4.126111917631660617e+02
1.800000000000000000e+01  1.832367210836696904e+05  4.039227065617612311e+02
1.812500000000000000e+01  1.865114029022678442e+05  4.193830837403826308e+02
1.825000000000000000e+01  1.915118869767249562e+05  4.159186018650362371e+02
1.837500000000000000e+01  1.958989226729443180e+05  4.316724305436805480e+02
1.850000000000000000e+01  2.010996702243745094e+05  4.307506561137298036e+02
1.862500000000000000e+01  2.016698191022131068e+05  4.346978458885125178e+02
1.875000000000000000e+01  2.006326347287477111e+05  4.116660806053332635e+02
1.887500000000000000e+01  1.982214829681612027e+05  4.314130044637321930e+02
1.900000000000000000e+01  1.939624964367487119e+05  4.125283899544675705e+02
1.912500000000000000e+01  1.901970113861498539e+05  4.233966444467033057e+02
1.925000000000000000e+01  1.873364559085128130e+05  4.152607526664753550e+02
1.937500000000000000e+01  1.846517186914931226e+05  4.156725007991919938e+02
1.950000000000000000e+01  1.832552182155246264e+05  4.074793860060574389e+02
1.962500000000000000e+01  1.812562716730239626e+05  4.139296046980574033e+02
1.975000000000000000e+01  1.809189376607722661e+05  4.136200405605438846e+02
1.987500000000000000e+01  1.803535643760373932e+05  4.115763072661839033e+02
2.000000000000000000e+01  1.790314609927940182e+05  4.119259239973011404e+02
2.012500000000000000e+01  1.810867044960137282e+05  3.984588044975414505e+02
2.025000000000000000e+01  1.808305214754235931e+05  4.112876772230778215e+02
2.037500000000000000e+01  1.825243182501358096e+05  4.008600748271026646e+02
2.050000000000000000e+01  1.870779461200829828e+05  4.209326925392584826e+02
2.062500000000000000e+01  1.902593331386369828e+05  4.237170441560899121e+02
2.075000000000000000e+01  1.954986536840544723e+05  4.269272496133311279e+02
2.087500000000000000e+01  1.997328873515239393e+05  4.294020414276936890e+02
2.100000000000000000e+01  2.029436556900680880e+05  4.405805324959156906e+02
2.112500000000000000e+01  2.021358054648933175e+05  4.348635915929490352e+02
2.125000000000000000e+01  2.002960954084859404e+05  4.378163933751123409e+02
2.137500000000000000e+01  1.969900039183698245e+05  4.331344476361445572e+02
2.150000000000000000e+01  1.905406115424665622e+05  4.175491104187487963e+02
2.162500000000000000e+01  1.876690719842176186e+05  4.056271113731352216e+02
2.175000000000000000e+01  1.838064752359843988e+05  4.213407125124714412e+02
2.187500000000000000e+01  1.819718644128307642e+05  4.056549707382264955e+02
2.200000000000000000e+01  1.791451463812424045e+05  4.182062914905846469e+02
2.212500000000000000e+01  1.790086902288047422e+05  4.085646859855541493e+02
2.225000000000000000e+01  1.786442667785686208e+05  4.145615103642735448e+02
2.237500000000000000e+01  1.787123237044230918e+05  4.097257986273090182e+02
2.250000000000000000e+01  1.787422888201877649e+05  4.195943983683469583e+02
2.262500000000000000e+01  1.768506408885497949e+05  4.072036071673901461e+02
2.275000000000000000e+01  1.779016827977586072e+05  4.181895375713967837e+02
2.287500000000000000e+01  1.774484159651504888e+05  4.005587173176162992e+02
2.300000000000000000e+01  1.782790612302948430e+05  4.109973242566322824e+02
2.312500000000000000e+01  1.772124116285100172e+05  4.020520897661286313e+02
2.325000000000000000e+01  1.768601417843060626e+05  4.048468025009411804e+02
2.337500000000000000e+01  1.778769298274579342e+05  4.098481493048287803e+02
2.350000000000000000e+01  1.768241242162108829e+05  4.103586854982569321e+02
2.362500000000000000e+01  1.773573391884737357e+05  4.134226174363096220e+02
2.375000000000000000e+01  1.789436957172396360e+05  4.106233380053465112e+02
2.387500000000000000e+01  1.808326025791249122e+05  4.276711739960142040e+02
2.400000000000000000e+01  1.809417705158831959e+05  4.090712044139972363e+02
2.412500000000000000e+01  1.847026366553161351e+05  4.260857336382601375e+02
2.425000000000000000e+01  1.847515578396123019e+05  4.196439556505845303e+02
2.437500000000000000e+01  1.882843524605658313e+05  4.144960643226358457e+02
2.450000000000000000e+01  1.899094906844161160e+05  4.194654753905111306e+02
2.462500000000000000e+01  1.942467168839765363e+05  4.333274145510615085e+02
2.475000000000000000e+01  1.947580407917289704e+05  4.355989531951333333e+02
2.487500000000000000e+01  1.980212280237363302e+05  4.330601617487048998e+02
2.500000000000000000e+01  2.009358711844099162e+05  4.395962247649803203e+02
2.512500000000000000e+01  2.003427343460384582e+05  4.414024264340084187e+02
2.525000000000000000e+01  1.974553260878818401e+05  4.379943753113546450e+02
2.537500000000000000e+01  1.928681341291914578e+05  4.278001459488775140e+02
2.550000000000000000e+01  1.891003005604853970e+05  4.306429144988189819e+02
2.562500000000000000e+01  1.848406169106899470e+05  4.292390381201496439e+02
2.575000000000000000e+01  1.823017668481570727e+05  4.102712711839736244e+02
2.587500000000000000e+01  1.798111343200051051e+05  4.037316671258897713e+02
2.600000000000000000e+01  1.780124235920518113e+05  4.186002289856253356e+02
2.612500000000000000e+01  1.777342012365375413e+05  4.106742575811937854e+02
2.625000000000000000e+01  1.784140034084674262e+05  4.205071501045163700e+02
2.637500000000000000e+01  1.779985887007134734e+05  4.159186118795054199e+02
2.650000000000000000e+01  1.770424621370949608e+05  4.104323610561837086e+02
2.662500000000000000e+01  1.773835905142553675e+05  4.221205900990910322e+02
2.675000000000000000e+01  1.766914680591830693e+05  4.170814336329743242e+02
2.687500000000000000e+01  1.774849522069118975e+05  4.182744694489544486e+02
2.700000000000000000e+01  1.775687483910596347e+05  4.146483030419466900e+02
2.712500000000000000e+01  1.789775401156782755e+05  4.089155742061901151e+02
2.725000000000000000e+01  1.791756902871933125e+05  4.121443334589816914e+02
2.737500000000000000e+01  1.809008659729554493e+05  4.090770101509323808e+02
2.750000000000000000e+01  1.839121279944790003e+05  4.356798625435113763e+02
2.762500000000000000e+01  1.895185638500304194e+05  4.257382435632574129e+02
2.775000000000000000e+01  1.953844967816915596e+05  4.360055584070056511e+02
2.787500000000000000e+01  2.061519330328017822e+05  4.534021324044566654e+02
2.800000000000000000e+01  2.165750000000000000e+05  4.653761919135958465e+02
2.812500000000000000e+01  2.229948288629658055e+05  4.724774237329711468e+02
2.825000000000000000e+01  2.306635379153846879e+05  4.805991023379003195e+02
2.837500000000000000e+01  2.380139960949626111e+05  4.823090042583746708e+02
2.850000000000000000e+01  2.489083945787414268e+05  4.873544720927917524e+02
2.862500000000000000e+01  2.527932622520796140e+05  4.928174626658588409e+02
2.875000000000000000e+01  2.589015721063601668e+05  4.999236488753359140e+02
2.887500000000000000e+01  2.585543172680810094e+05  5.062806622430305765e+02
2.900000000000000000e+01  2.565862199194701097e+05  5.073450565119799762e+02
2.912500000000000000e+01  2.435232696923226467e+05  4.443507577558987123e+02
2.925000000000000000e+01  2.370171420670516673e+05  4.986873715496888622e+02
2.937500000000000000e+01  2.212079087512737024e+05  4.862510922679400664e+02
2.950000000000000000e+01  2.099254028009632311e+05  4.605188892959565123e+02
2.962500000000000000e+01  1.984562442967011884e+05  4.528321584001765245e+02
2.975000000000000000e+01  1.904118026853232877e+05  4.353762750304179008e+02
2.987500000000000000e+01  1.838791622861813230e+05  4.233252624470195542e+02
3.000000000000000000e+01  1.799368483066290210e+05  4.238915572053222149e+02
3.012500000000000000e+01  1.786295926643361745e+05  4.152043837593415674e+02
3.025000000000000000e+01  1.772315025543724187e+05  4.197112727569426625e+02
3.037500000000000000e+01  1.779506974200610712e+05  4.206731218096153953e+02
3.050000000000000000e+01  1.769604889675122977e+05  4.236050931519251321e+02
3.062500000000000000e+01  1.790663793602228398e+05  4.234099713408712091e+02
3.075000000000000000e+01  1.774545324720489443e+05  4.232203524829793082e+02
3.087500000000000000e+01  1.764015112105402513e+05  4.207496351538270005e+02
3.100000000000000000e+01  1.763853586664462346e+05  4.264224548709669307e+02
3.112500000000000000e+01  1.760424913459323870e+05  4.190478400056543364e+02
3.125000000000000000e+01  1.764469340048879385e+05  4.141798461796249740e+02
3.137500000000000000e+01  1.766482026358786388e+05  4.083361108526416388e+02
3.150000000000000000e+01  1.766260570913686242e+05  4.190419486653686931e+02
3.162500000000000000e+01  1.757811810268038826e+05  4.206603742832211879e+02
3.175000000000000000e+01  1.767041358302016451e+05  4.134711370952969105e+02
3.187500000000000000e+01  1.773375471995435364e+05  4.254191599484395852e+02
3.200000000000000000e+01  1.795311575075738365e+05  4.265288535150198186e+02
3.212500000000000000e+01  1.808251705754054419e+05  4.252168182661599189e+02
3.225000000000000000e+01  1.796591591477422335e+05  4.324869473998911076e+02
3.237500000000000000e+01  1.825128601663374575e+05  4.298098248493638494e+02
3.250000000000000000e+01  1.844163310363353812e+05  4.320056630399103597e+02
3.262500000000000000e+01  1.856649305047309899e+05  4.242077502183105366e+02
3.275000000000000000e+01  1.891308794790064567e+05  4.334388441693081404e+02
3.287500000000000000e+01  1.902763736788849637e+05  4.333066089839397819e+02
3.300000000000000000e+01  1.900370981235031795e+05  4.373224208936105128e+02
3.312500000000000000e+01  1.910014713028987171e+05  4.389516371553229988e+02
3.325000000000000000e+01  1.900134972937320126e+05  4.380913293992446711e+02
3.337500000000000000e+01  1.941359190174619143e+05  4.432396231256371379e+02
3.350000000000000000e+01  1.997921456722224539e+05  4.560763254889796485e+02
3.362500000000000000e+01  2.089942268521928054e+05  4.613345525159041927e+02
3.375000000000000000e+01  2.209731568064228632e+05  4.792983131239145678e+02
3.387500000000000000e+01  2.335308411788082740e+05  4.885080037800772743e+02
3.400000000000000000e+01  2.443176977562429965e+05  4.951356223553289624e+02
3.412500000000000000e+01  2.473072451048098446e+05  4.839987227940287653e+02
3.425000000000000000e+01  2.404485435007250635e+05  4.984805560347871278e+02
3.437500000000000000e+01  2.313811438182214042e+05  4.834804668303586368e+02
3.450000000000000000e+01  2.180679606237393455e+05  4.676211890474754114e+02
3.462500000000000000e+01  2.058641743015919055e+05  4.622288080579085658e+02
3.475000000000000000e+01  1.949591164050963416e+05  4.469071545633748883e+02
3.487500000000000000e+01  1.902440371081919875e+05  4.399520507825542381e+02
3.500000000000000000e+01  1.873098212460487557e+05  4.464860731862154353e+02
3.512500000000000000e+01  1.847558110487415106e+05  4.399309518223911937e+02
3.525000000000000000e+01  1.840139915922926739e+05  4.369412089795004022e+02
3.537500000000000000e+01  1.818566633074414567e+05  4.302965093539949635e+02
3.550000000000000000e+01  1.825721497027733421e+05  4.210567069843027639e+02
3.562500000000000000e+01  1.806889138390294975e+05  4.177345693993997884e+02
3.575000000000000000e+01  1.811948971104040102e+05  4.369390698244849318e+02
3.587500000000000000e+01  1.805716895440940862e+05  4.283293595040965442e+02
3.600000000000000000e+01  1.813938226409488998e+05  4.334692943726323051e+02
3.612500000000000000e+01  1.830063557652762975e+05  4.336217410058777659e+02
3.625000000000000000e+01  1.884187180848185380e+05  4.482071040398168975e+02
3.637500000000000000e+01  1.954994037195371639e+05  4.510561305505929113e+02
3.650000000000000000e+01  2.038023397317091294e+05  4.653579401846819223e+02
3.662500000000000000e+01  2.144581297369430831e+05  4.786487186474133182e+02
3.675000000000000000e+01  2.213540377616857586e+05  4.837244870676248070e+02
3.687500000000000000e+01  2.235521704989594873e+05  4.614888456423241223e+02
3.700000000000000000e+01  2.212673552784717758e+05  4.726823635303937863e+02
3.712500000000000000e+01  2.151061385668173898e+05  4.688968414993463512e+02
3.725000000000000000e+01  2.057755329655041860e+05  4.619389655222339570e+02
3.737500000000000000e+01  1.962948804578121053e+05  4.542755558719370015e+02
3.750000000000000000e+01  1.875189416777689476e+05  4.398376500838823517e+02
3.762500000000000000e+01  1.809348982112044177e+05  4.393915210848228412e+02
3.775000000000000000e+01  1.776114622202260653e+05  4.313525191361483166e+02
3.787500000000000000e+01  1.768114821576387039e+05  4.409346158382122098e+02
3.800000000000000000e+01  1.760264892232495768e+05  4.278263264960787637e+02
3.812500000000000000e+01  1.743105497211809270e+05  4.314948043020664272e+02
3.825000000000000000e+01  1.751864153576910903e+05  4.044021102096739924e+02
3.837500000000000000e+01  1.759707060017588374e+05  4.258221314176606711e+02
3.850000000000000000e+01  1.768244746101377823e+05  4.295679209407203416e+02
3.862500000000000000e+01  1.789598680705328006e+05  4.294456949377488968e+02
3.875000000000000000e+01  1.814849409770392522e+05  4.410147582467977259e+02
3.887500000000000000e+01  1.857622595120164624e+05  4.400207665371299868e+02
3.900000000000000000e+01  1.930647980130940559e+05  4.522081135616339225e+02
3.912500000000000000e+01  2.014949325970410137e+05  4.630269246016461580e+02
3.925000000000000000e+01  2.083674320328239992e+05  4.676478647085485250e+02
3.937500000000000000e+01  2.134743598629859625e+05  4.846111168842842289e+02
3.950000000000000000e+01  2.164193123426863458e+05  4.826557603676570807e+02
3.962500000000000000e+01  2.160813550660907640e+05  4.570431005991947018e+02
3.975000000000000000e+01  2.105974496378508047e+05  4.607652623373719507e+02
3.987500000000000000e+01  2.029849045783680631e+05  4.577878411683179252e+02
4.000000000000000000e+01  1.955800603118060390e+05  4.515018655279879454e+02
4.012500000000000000e+01  1.889230887342843926e+05  4.449463506595618583e+02
4.025000000000000000e+01  1.823980231977904332e+05  4.412189719144192850e+02
4.037500000000000000e+01  1.805206855821990466e+05  4.376069378669785692e+02
4.050000000000000000e+01  1.779835100105878955e+05  4.311310417298951734e+02
4.062500000000000000e+01  1.758797740692976513e+05  4.398272785560162674e+02
4.075000000000000000e+01  1.754672852167741803e+05  4.290192142883372526e+02
4.087500000000000000e+01  1.745641945391665504e+05  4.359393814452729430e+02
4.100000000000000000e+01  1.729826712206068623e+05  4.147645384531459740e+02
4.112500000000000000e+01  1.736847836052905477e+05  4.236756150296802730e+02
4.125000000000000000e+01  1.749638613547553250e+05  4.233981182801914542e+02
4.137500000000000000e+01  1.767470327524503227e+05  4.294444214953315964e+02
4.150000000000000000e+01  1.786130777060589171e+05  4.355082487763438053e+02
4.162500000000000000e+01  1.831885287182965840e+05  4.414924881891042219e+02
4.175000000000000000e+01  1.881337067887470766e+05  4.500394286789386911e+02
4.187500000000000000e+01  1.930469762924087408e+05  4.529859738487333516e+02
4.200000000000000000e+01  1.979496188207757368e+05  4.628175601426525532e+02
4.212500000000000000e+01  1.997994038582764624e+05  4.616755691560344985e+02
4.225000000000000000e+01  2.020629875263989670e+05  4.649009624432103465e+02
4.237500000000000000e+01  2.014481447612832708e+05  4.462850429585440111e+02
4.250000000000000000e+01  2.001523475518112537e+05  4.509594538166471693e+02
4.262500000000000000e+01  1.960859833608578483e+05  4.478985697191656641e+02
4.275000000000000000e+01  1.948438382363767305e+05  4.489036561365615512e+02
4.287500000000000000e+01  1.924479182831549260e+05  4.437382854946444013e+02
4.300000000000000000e+01  1.898030816839139152e+05  4.455888831757040407e+02
4.312500000000000000e+01  1.871404744152820786e+05  4.411543784113500237e+02
4.325000000000000000e+01  1.844666258772364527e+05  4.384364330582676530e+02
4.337500000000000000e+01  1.829695831466542732e+05  4.384457981315158008e+02
4.350000000000000000e+01  1.794604512566516642e+05  4.284188340542690412e+02
4.362500000000000000e+01  1.772326090783533291e+05  4.344354082839857938e+02
4.375000000000000000e+01  1.758553987149735913e+05  3.993599977978345237e+02
4.387500000000000000e+01  1.723818559509958141e+05  3.883617012390508307e+02
4.400000000000000000e+01  1.723011809930959134e+05  4.397971952816633916e+02
4.412500000000000000e+01  1.703924761988365208e+05  4.134083917655969458e+02
4.425000000000000000e+01  1.696192569744936482e+05  4.235758539258416135e+02
4.437500000000000000e+01  1.690788005166467628e+05  4.152916692176657421e+02
4.450000000000000000e+01  1.695810945154750079e+05  4.117829410291664090e+02
4.462500000000000000e+01  1.706293899245911161e+05  4.154161966970066828e+02
4.475000000000000000e+01  1.702790628581267083e+05  4.163874814205867665e+02
4.487500000000000000e+01  1.700293456462033209e+05  4.147205239886780532e+02
4.500000000000000000e+01  1.699067524297754862e+05  4.146509877403004793e+02
4.512500000000000000e+01  1.694865134465531155e+05  4.008779054156688062e+02
4.525000000000000000e+01  1.695666010449695168e+05  4.063740457835837674e+02
4.537500000000000000e+01  1.697265757282912673e+05  4.115711566451712997e+02
4.550000000000000000e+01  1.708814500339551596e+05  4.126151147686488798e+02
4.562500000000000000e+01  1.714392751476653793e+05  4.227775035170333240e+02
4.575000000000000000e+01  1.735825960175582732e+05  4.204459992788619616e+02
4.587500000000000000e+01  1.733122159742794174e+05  4.238678924215528241e+02
4.600000000000000000e+01  1.769634681017124967e+05  4.307695558640069180e+02
4.612500000000000000e+01  1.781855424796989246e+05  4.380337573499058408e+02
4.625000000000000000e+01  1.797524146564434341e+05  4.299718737367221593e+02
4.637500000000000000e+01  1.837767369369419466e+05  4.494353253440643243e+02
4.650000000000000000e+01  1.889514708502758585e+05  4.446113886851140933e+02
4.662500000000000000e+01  1.950126913310231175e+05  4.399235166545246329e+02
4.675000000000000000e+01  2.025342253883614903e+05  4.656857561828432495e+02
4.687500000000000000e+01  2.102213675206304761e+05  4.680922427447274572e+02
4.700000000000000000e+01  2.165007317804163322e+05  4.866917991367948275e+02
4.712500000000000000e+01  2.247343929654759704e+05  4.921585742039658271e+02
4.725000000000000000e+01  2.273899642692903290e+05  5.001206571090002058e+02
4.737500000000000000e+01  2.295695343942525797e+05  4.974482424363112614e+02
4.750000000000000000e+01  2.287955565157919482e+05  5.114196174755916218e+02
4.762500000000000000e+01  2.228693967245812819e+05  4.965987365314803128e+02
4.775000000000000000e+01  2.156447205073506921e+05  4.980911791597012552e+02
4.787500000000000000e+01  2.080749654786259925e+05  4.737205230857500169e+02
4.800000000000000000e+01  1.984317287960855756e+05  4.480458872672107304e+02
4.812500000000000000e+01  1.920772024044573482e+05  4.504611938609839967e+02
4.825000000000000000e+01  1.864137505796673358e+05  4.489213610614567642e+02
4.837500000000000000e+01  1.830534003154085949e+05  4.499732266118057282e+02
4.850000000000000000e+01  1.805907726263540972e+05  4.415171580171846699e+02
4.862500000000000000e+01  1.787442207491254667e+05  4.448700409193656355e+02
4.875000000000000000e+01  1.784165228205239691e+05  4.481271518813531998e+02
4.887500000000000000e+01  1.793482586747212918e+05  4.528101386852871997e+02
4.900000000000000000e+01  1.810986125902250642e+05  4.524327650448165627e+02
4.912500000000000000e+01  1.815404003520565748e+05  4.521557686747158300e+02
4.925000000000000000e+01  1.845883369661008765e+05  4.584068907963503534e+02
4.937500000000000000e+01  1.874352289767401235e+05  4.332075120839819533e+02
4.950000000000000000e+01  1.915221831578334677e+05  4.521259697951575731e+02
4.962500000000000000e+01  1.936088314494973747e+05  4.608310532594086908e+02
4.975000000000000000e+01  1.963694468200187839e+05  4.582109298928208432e+02
4.987500000000000000e+01  1.999991309767628263e+05  4.775874809578194800e+02
5.000000000000000000e+01  1.993001505670800980e+05  4.733916904706106834e+02
5.012500000000000000e+01  1.985322366269221238e+05  4.720806775547943062e+02
5.025000000000000000e+01  1.964751449526337092e+05  4.739310470824038930e+02
5.037500000000000000e+01  1.952117178438304109e+05  4.704716404929343412e+02
5.050000000000000000e+01  1.908470916504144261e+05  4.658119685101892742e+02
5.062500000000000000e+01  1.897827008954745252e+05  4.638916096320119209e+02
5.075000000000000000e+01  1.879744178552756784e+05  4.382926614123894637e+02
5.087500000000000000e+01  1.855931749289895524e+05  4.479791577820016073e+02
5.100000000000000000e+01  1.859322045687040954e+05  4.427584788282473482e+02
5.112500000000000000e+01  1.865372667545984150e+05  4.599651239690580837e+02
5.125000000000000000e+01  1.868185911926319241e+05  4.558354636857691844e+02
5.137500000000000000e+01  1.869707167229448387e+05  4.684159009019032283e+02
5.150000000000000000e+01  1.864602186995246448e+05  4.565361247965568054e+02
5.162500000000000000e+01  1.861160551622450585e+05  4.632490999227185284e+02
5.175000000000000000e+01  1.847898830153676099e+05  4.547903387134824129e+02
5.187500000000000000e+01  1.813247464439258911e+05  4.559670556832866168e+02
5.200000000000000000e+01  1.802904816952715628e+05  4.527311495113462456e+02
5.212500000000000000e+01  1.786119177481649094e+05  4.288194363422399533e+02
5.225000000000000000e+01  1.778372170209028700e+05  4.394258393369085525e+02
5.237500000000000000e+01  1.752669726644561160e+05  4.391525125973182071e+02
5.250000000000000000e+01  1.761124048691764765e+05  4.456257586766473082e+02
5.262500000000000000e+01  1.759987687167869881e+05  4.414769709575661523e+02
5.275000000000000000e+01  1.768844635344184935e+05  4.516711087327208816e+02
5.287500000000000000e+01  1.748287219086368568e+05  4.363170835616826366e+02
5.300000000000000000e+01  1.748253481833446131e+05  4.508818940695709330e+02
5.312500000000000000e+01  1.771193142181861040e+05  4.444555835593787378e+02
5.325000000000000000e+01  1.778258118106044130e+05  4.571508685934713299e+02
5.337500000000000000e+01  1.784017328671092691e+05  4.478202868270862496e+02
5.350000000000000000e+01  1.812360416171897668e+05  4.372595548194494199e+02
5.362500000000000000e+01  1.810179311245152203e+05  4.368134306477742825e+02
5.375000000000000000e+01  1.833540608525004354e+05  4.497147549861050493e+02
5.387500000000000000e+01  1.837569707507218700e+05  4.536365707957278346e+02
5.400000000000000000e+01  1.842890904802204750e+05  4.450414759707907706e+02
5.412500000000000000e+01  1.835161956914466864e+05  4.559004080902311102e+02
5.425000000000000000e+01  1.827066817427093920e+05  4.496619656197813697e+02
5.437500000000000000e+01  1.821769337777956680e+05  4.574999929399099301e+02
5.450000000000000000e+01  1.814248209907074925e+05  4.453017814852906326e+02
5.462500000000000000e+01  1.801266042438166332e+05  4.592676034361676898e+02
5.475000000000000000e+01  1.768470465691596328e+05  4.433092261429252972e+02
5.487500000000000000e+01  1.761824701624158479e+05  4.273467349972913780e+02
5.500000000000000000e+01  1.745025982912269537e+05  4.316027417920703897e+02
5.512500000000000000e+01  1.751184195817971486e+05  4.375581913379205048e+02
5.525000000000000000e+01  1.728898660434682388e+05  4.343555191849116000e+02
5.537500000000000000e+01  1.733265673610128870e+05  4.333394401718232984e+02
5.550000000000000000e+01  1.722784389162687003e+05  4.392443389995609664e+02
5.562500000000000000e+01  1.725367902342903544e+05  4.308548464174799051e+02
5.575000000000000000e+01  1.726345764057888591e+05  4.432476531185877207e+02
5.587500000000000000e+01  1.730107338146058610e+05  4.349021791610778109e+02
5.600000000000000000e+01  1.761200486856070347e+05  4.478831536548455006e+02
5.612500000000000000e+01  1.777264983615220699e+05  4.368841675047884223e+02
5.625000000000000000e+01  1.825970855014802946e+05  4.319505142497824295e+02
5.637500000000000000e+01  1.858180522885241080e+05  4.305348247570381091e+02
5.650000000000000000e+01  1.904274020905893412e+05  4.487270311033835242e+02
5.662500000000000000e+01  1.969053454820954648e+05  4.595752713952599038e+02
5.675000000000000000e+01  1.986373642608580994e+05  4.639034398678119828e+02
5.687500000000000000e+01  2.009607072251166974e+05  4.685952176228398116e+02
5.700000000000000000e+01  2.030400289038712799e+05  4.692150278105366965e+02
5.712500000000000000e+01  2.031657279585003853e+05  4.866094929870542956e+02
5.725000000000000000e+01  1.991428591663999541e+05  4.731649291128509844e+02
5.737500000000000000e+01  1.951196093764652614e+05  4.736512819933323613e+02
5.750000000000000000e+01  1.902306514150840521e+05  4.626251494670348734e+02
5.762500000000000000e+01  1.862059903432246065e+05  4.555042450803559859e+02
5.775000000000000000e+01  1.809653275042632304e+05  4.334303046877612928e+02
5.787500000000000000e+01  1.777414890823879396e+05  4.456661924394633161e+02
5.800000000000000000e+01  1.737638086841968761e+05  4.366393470086951538e+02
5.812500000000000000e+01  1.755836558307555388e+05  4.502914816129876385e+02
5.825000000000000000e+01  1.745051247831349028e+05  4.491561816631248689e+02
5.837500000000000000e+01  1.783523477198897162e+05  4.594421652942530727e+02
5.850000000000000000e+01  1.817989804644636170e+05  4.465013291252694785e+02
5.862500000000000000e+01  1.822782703747919877e+05  5.834555364524674133e+02
5.875000000000000000e+01  1.845171436037609819e+05  4.472581065633494291e+02
5.887500000000000000e+01  1.879190982031832682e+05  4.437784841404046574e+02
5.900000000000000000e+01  1.871095133604050789e+05  4.476585986141015496e+02
5.912500000000000000e+01  1.899268951908274321e+05  4.433395600348294465e+02
5.925000000000000000e+01  1.890243685540785082e+05  4.563623177832423039e+02
5.937500000000000000e+01  1.893352514890400053e+05  4.633657849628277745e+02
5.950000000000000000e+01  1.894901849810627173e+05  4.619335447104469381e+02
5.962500000000000000e+01  1.907933291791142838e+05  4.740766621410444941e+02
5.975000000000000000e+01  1.905848688750241126e+05  4.716392640232540430e+02
5.987500000000000000e+01  1.921627796175490366e+05  4.786570661652669401e+02
6.000000000000000000e+01  1.933234023062914785e+05  4.713102591206074408e+02
6.012500000000000000e+01  1.954679642513178987e+05  4.889725560572696850e+02
6.025000000000000000e+01  1.965043965043364151e+05  4.762235361641984923e+02
6.037500000000000000e+01  1.997218894793782965e+05  4.934820597163608227e+02
6.050000000000000000e+01  1.991131064903428487e+05  4.384092496120638316e+02
6.062500000000000000e+01  1.993735871994674962e+05  4.722106734529324399e+02
6.075000000000000000e+01  1.998957306810131413e+05  4.809718202559990345e+02
6.087500000000000000e+01  1.986686283035500965e+05  4.743399897790891373e+02
6.100000000000000000e+01  1.961899260290219972e+05  4.793682850254048162e+02
6.112500000000000000e+01  1.946565575930597552e+05  4.733340006291111877e+02
6.125000000000000000e+01  1.907878756876011321e+05  4.851826908443815682e+02
6.137500000000000000e+01  1.874326463054842607e+05  4.641541055030632492e+02
6.150000000000000000e+01  1.858250605633731466e+05  4.731698215751027305e+02
6.162500000000000000e+01  1.824372099725373846e+05  4.607823066890880455e+02
6.175000000000000000e+01  1.805374182705282292e+05  4.644565110536268548e+02
6.187500000000000000e+01  1.793779481909509632e+05  4.248313145391298349e+02
6.200000000000000000e+01  1.809128959276117675e+05  4.508754487289722306e+02
6.212500000000000000e+01  1.808076662841997750e+05  4.567991688311063854e+02
6.225000000000000000e+01  1.840140828228270984e+05  4.591993639244436736e+02
6.237500000000000000e+01  1.863447622519544384e+05  4.740185430671097606e+02
6.250000000000000000e+01  1.943445144802797586e+05  4.719602911370611196e+02
6.262500000000000000e+01  2.041380879203486547e+05  4.906740291199222384e+02
6.275000000000000000e+01  2.178513044408201240e+05  5.016952468374055911e+02
6.287500000000000000e+01  2.337996470898077532e+05  5.342083950995665873e+02
6.300000000000000000e+01  2.504781995651894249e+05  5.414938014657595886e+02
6.312500000000000000e+01  2.670913949156243470e+05  5.653060281956802555e+02
6.325000000000000000e+01  2.855874493637378328e+05  5.415432631825431145e+02
6.337500000000000000e+01  2.981113906913267565e+05  5.784842200876094012e+02
6.350000000000000000e+01  3.074810000711610192e+05  5.916050542397198342e+02
6.362500000000000000e+01  3.131892574068587273e+05  6.043478779469681967e+02
6.375000000000000000e+01  3.141937500495420536e+05  6.072366067094885693e+02
6.387500000000000000e+01  3.095030795667638886e+05  5.992598796585667742e+02
6.400000000000000000e+01  2.993072732610851526e+05  5.991192174592591755e+02
6.412500000000000000e+01  2.860011808688359451e+05  5.783351026052230281e+02
6.425000000000000000e+01  2.711275088842665427e+05  5.749132088587901990e+02
6.437500000000000000e+01  2.512522539119121211e+05  5.332652214972123375e+02
6.450000000000000000e+01  2.321175880259920668e+05  5.417691766714358437e+02
6.462500000000000000e+01  2.129556639355383231e+05  4.728555089212242137e+02
6.475000000000000000e+01  1.985857451112250274e+05  4.687917602226241343e+02
6.487500000000000000e+01  1.906583780022515275e+05  4.654095917806432112e+02
6.500000000000000000e+01  1.845007987887061317e+05  4.620714564679157093e+02
6.512500000000000000e+01  1.797918608745555975e+05  4.588154632281111276e+02
6.525000000000000000e+01  1.786176380188711919e+05  4.524256862667351697e+02
6.537500000000000000e+01  1.770264547105226957e+05  4.571260555127406633e+02
6.550000000000000000e+01  1.780767166409455822e+05  4.619747018585326259e+02
6.562500000000000000e+01  1.777535727957206836e+05  4.601248813859203324e+02
6.575000000000000000e+01  1.785896134229654272e+05  4.590128203478016076e+02
6.587500000000000000e+01  1.781522257029894972e+05  4.791895948541670123e+02
6.600000000000000000e+01  1.778343093209708459e+05  4.339229491668839955e+02
6.612500000000000000e+01  1.785687037922314485e+05  4.414962000281169026e+02
6.625000000000000000e+01  1.800237767124136153e+05  4.533769812114663864e+02
6.637500000000000000e+01  1.801869962029816525e+05  4.600440747283016663e+02
6.650000000000000000e+01  1.799247251332691521e+05  4.580269136194246471e+02
6.662500000000000000e+01  1.808177599576929933e+05  4.595073807278631079e+02
6.675000000000000000e+01  1.801112804544582614e+05  4.626412122148008166e+02
6.687500000000000000e+01  1.802248771430793277e+05  4.614193695721550625e+02
6.700000000000000000e+01  1.824403034502008813e+05  4.733936928713360430e+02
6.712500000000000000e+01  1.823417456908488530e+05  4.642670810016128371e+02
6.725000000000000000e+01  1.837052494645545667e+05  4.836509505061505365e+02
6.737500000000000000e+01  1.854947773247277073e+05  4.378104800837198241e+02
6.750000000000000000e+01  1.865052844278826378e+05  4.495591357244650794e+02
6.762500000000000000e+01  1.892073466942244268e+05  4.633636955594921005e+02
6.775000000000000000e+01  1.898806757389689737e+05  4.663065116677097421e+02
6.787500000000000000e+01  1.909628006616994098e+05  4.743850104937151286e+02
6.800000000000000000e+01  1.883500284628205700e+05  4.683875132312881533e+02
6.812500000000000000e+01  1.882259295763124828e+05  4.705089543195176134e+02
6.825000000000000000e+01  1.870635865268107736e+05  4.740285608755220323e+02
6.837500000000000000e+01  1.856034060990279831e+05  4.876168736365312384e+02
6.850000000000000000e+01  1.845078608810192090e+05  4.626699017076285259e+02
6.862500000000000000e+01  1.827592424217101652e+05  4.722934090041252375e+02
6.875000000000000000e+01  1.787389875369191577e+05  4.417066560326309741e+02
6.887500000000000000e+01  1.770220831292807707e+05  4.369943310383591779e+02
6.900000000000000000e+01  1.752857295342144207e+05  4.445927463057504383e+02
6.912500000000000000e+01  1.723762912924052798e+05  4.429979199007588022e+02
6.925000000000000000e+01  1.703992626563486410e+05  4.417113107260353786e+02
6.937500000000000000e+01  1.700380353501277859e+05  4.423845699342346620e+02
6.950000000000000000e+01  1.696602175698149367e+05  4.525254052310598354e+02
6.962500000000000000e+01  1.675920564838796563e+05  4.502739379442113545e+02
6.975000000000000000e+01  1.675309620535532013e+05  4.576614200228665936e+02
6.987500000000000000e+01  1.686014656247919775e+05  4.397782040943052948e+02
7.000000000000000000e+01  1.685559398552406929e+05  4.627899151444981953e+02
7.012500000000000000e+01  1.676110515556914906e+05  4.236480828298042525e+02
7.025000000000000000e+01  1.680640325579728524e+05  4.218681502223009261e+02
7.037500000000000000e+01  1.678946417564687144e+05  4.305613630516591570e+02
7.050000000000000000e+01  1.680531353047504090e+05  4.379815718320087399e+02
7.062500000000000000e+01  1.670354659682727070e+05  4.332391518708367357e+02
7.075000000000000000e+01  1.672714137494273018e+05  4.416600355637985444e+02
7.087500000000000000e+01  1.678485295013324649e+05  4.507905800440528878e+02
7.100000000000000000e+01  1.689363570585664420e+05  4.464235191833600993e+02
7.112500000000000000e+01  1.684810203806672653e+05  4.492427900972882071e+02
7.125000000000000000e+01  1.714275431075981178e+05  4.458261416934383305e+02
7.137500000000000000e+01  1.741435374910050305e+05  4.661562912156806533e+02
7.150000000000000000e+01  1.797652644894503173e+05  4.450617025438858718e+02
7.162500000000000000e+01  1.859165341754086257e+05  4.287582857300085379e+02
7.175000000000000000e+01  1.958000354324211366e+05  4.590153285067266324e+02
7.187500000000000000e+01  2.045093989062811888e+05  4.779365959585093719e+02
7.200000000000000000e+01  2.137276180924050277e+05  4.952828785097807440e+02
7.212500000000000000e+01  2.226985019603810215e+05  5.047776669874743334e+02
7.225000000000000000e+01  2.317474691542626242e+05  5.231586431271798574e+02
7.237500000000000000e+01  2.383023291813832766e+05  5.262691732875658772e+02
7.250000000000000000e+01  2.436698326848361758e+05  5.364132890541437746e+02
7.262500000000000000e+01  2.470248752420342644e+05  5.322959059838243547e+02
7.275000000000000000e+01  2.475513615386962774e+05  5.510018969501119273e+02
7.287500000000000000e+01  2.479278366291021812e+05  5.294558371902659246e+02
7.300000000000000000e+01  2.430695205296885106e+05  4.799164718382288584e+02
7.312500000000000000e+01  2.369270129332721699e+05  4.435427999083748887e+02
7.325000000000000000e+01  2.307318506980242964e+05  4.778644708375474011e+02
7.337500000000000000e+01  2.172933048142485495e+05  6.504708943854089966e+02
7.350000000000000000e+01  2.124380732216209581e+05  4.910435767502755766e+02
7.362500000000000000e+01  2.026960544854322507e+05  4.867104407986681167e+02
7.375000000000000000e+01  1.938350309745544509e+05  4.719436786530852714e+02
7.387500000000000000e+01  1.864558354795252671e+05  4.632861364676473954e+02
7.400000000000000000e+01  1.811100375726103084e+05  4.532228727183826891e+02
7.412500000000000000e+01  1.780801613943819539e+05  4.646382835457677061e+02
7.425000000000000000e+01  1.739032320137947099e+05  4.384190944495305757e+02
7.437500000000000000e+01  1.707006348784388101e+05  3.999680651931951161e+02
7.450000000000000000e+01  1.714223128524023341e+05  4.212829694748514839e+02
7.462500000000000000e+01  1.712677950299862423e+05  4.352453351529082965e+02
7.475000000000000000e+01  1.709323558206654561e+05  4.388901391886459464e+02
7.487500000000000000e+01  1.702309774573099858e+05  4.313780358187894990e+02
7.500000000000000000e+01  1.689047963933994179e+05  4.425672608809470603e+02
7.512500000000000000e+01  1.697344260855043831e+05  4.266489047410018998e+02
7.525000000000000000e+01  1.691144306411480648e+05  4.415279592075717687e+02
7.537500000000000000e+01  1.693783827318937692e+05  4.299497690339142082e+02
7.550000000000000000e+01  1.714014231952278060e+05  4.511688706279086318e+02
7.562500000000000000e+01  1.724243007756934676e+05  4.303338327585501020e+02
7.575000000000000000e+01  1.774642899667498714e+05  4.144247165620493547e+02
7.587500000000000000e+01  1.807996098234022793e+05  4.312349923080531653e+02
7.600000000000000000e+01  1.887314820279745909e+05  4.539398942270722159e+02
7.612500000000000000e+01  1.958178621774093190e+05  4.646892396521749902e+02
7.625000000000000000e+01  2.033746923660174361e+05  4.654078091439593550e+02
7.637500000000000000e+01  2.122452600194622937e+05  4.882750711654394991e+02
7.650000000000000000e+01  2.219137552440556174e+05  4.861400666951862490e+02
7.662500000000000000e+01  2.297991805905503570e+05  5.140728308039321064e+02
7.675000000000000000e+01  2.379309568614451564e+05  5.010683115798152585e+02
7.687500000000000000e+01  2.438600279882936738e+05  5.426338264362981363e+02
7.700000000000000000e+01  2.492151801053881645e+05  5.168559874119930555e+02
7.712500000000000000e+01  2.528187245292266598e+05  5.037219107537753189e+02
7.725000000000000000e+01  2.523706958696955990e+05  4.956722661747986649e+02
7.737500000000000000e+01  2.518836276913308538e+05  5.153926559625354002e+02
7.750000000000000000e+01  2.468951566652078764e+05  5.139590779653856316e+02
7.762500000000000000e+01  2.432807254041636188e+05  5.056336358604729071e+02
7.775000000000000000e+01  2.364694908012779197e+05  5.078172154211637803e+02
7.787500000000000000e+01  2.284290055551604601e+05  4.968795815038479873e+02
7.800000000000000000e+01  2.189694639573885652e+05  4.961201307802263045e+02
7.812500000000000000e+01  2.080764436078065191e+05  4.673963693438802807e+02
7.825000000000000000e+01  2.019845192846317950e+05  4.932941265060262026e+02
7.837500000000000000e+01  1.919257579074565438e+05  4.584119522852793125e+02
7.850000000000000000e+01  1.845464426924391009e+05  4.229947153325475711e+02
7.862500000000000000e+01  1.802478102886123233e+05  4.183018378464872740e+02
7.875000000000000000e+01  1.754396407649341854e+05  4.267783365744854223e+02
7.887500000000000000e+01  1.740815085011339979e+05  4.292490030806986852e+02
7.900000000000000000e+01  1.735492986342491640e+05  4.261847052909214426e+02
7.912500000000000000e+01  1.714585823494058277e+05  4.275735235777000298e+02
7.925000000000000000e+01  1.711322903396410984e+05  4.237921588784655000e+02
7.937500000000000000e+01  1.711542480073876504e+05  4.318237269858747709e+02
7.950000000000000000e+01  1.710380406805150560e+05  4.312615863638451970e+02
7.962500000000000000e+01  1.703501957750817528e+05  4.484266494050872325e+02
7.975000000000000000e+01  1.691403832303722447e+05  4.340644442664303142e+02
7.987500000000000000e+01  1.673768824216990906e+05  4.037834429452823315e+02
8.000000000000000000e+01  1.673193595577599481e+05  3.959370440079225091e+02
8.012500000000000000e+01  1.645823007921196404e+05  4.100397159160013985e+02
8.025000000000000000e+01  1.630537694274892856e+05  4.067874078964574664e+02
8.037500000000000000e+01  1.624271134447569202e+05  4.036780190493339546e+02
8.050000000000000000e+01  1.617852503585619270e+05  4.254384709018701756e+02
8.062500000000000000e+01  1.627894477428929822e+05  4.079462006089977990e+02
8.075000000000000000e+01  1.632541280786710849e+05  4.316657247667614570e+02
8.087500000000000000e+01  1.638837400349934760e+05  4.129272360315346191e+02
8.100000000000000000e+01  1.646078137107881776e+05  4.449379875591916402e+02
8.112500000000000000e+01  1.658636111152830417e+05  4.236981255749367392e+02
8.125000000000000000e+01  1.697699386574394593e+05  4.096029878300666383e+02
8.137500000000000000e+01  1.712117868371029617e+05  3.943349869951248365e+02
8.150000000000000000e+01  1.753492023011978599e+05  4.150524031247672383e+02
8.162500000000000000e+01  1.768823790555563755e+05  4.210506696803133195e+02
8.175000000000000000e+01  1.791685518704603892e+05  4.186158266326371518e+02
8.187500000000000000e+01  1.823477652851154853e+05  4.401839579753278713e+02
8.200000000000000000e+01  1.833066156692247896e+05  4.287360906006233563e+02
8.212500000000000000e+01  1.856068978582699492e+05  4.715545700798851954e+02
8.225000000000000000e+01  1.863287749039943737e+05  4.457485882375598294e+02
8.237500000000000000e+01  1.868398131085315254e+05  4.689112718845516383e+02
8.250000000000000000e+01  1.865699699327465205e+05  4.456108311898259444e+02
8.262500000000000000e+01  1.863024058510652976e+05  4.335170460265242127e+02
8.275000000000000000e+01  1.856519587602070242e+05  3.960544140082531612e+02
8.287500000000000000e+01  1.853663667512604152e+05  4.197915353916301342e+02
8.300000000000000000e+01  1.843481333316982782e+05  4.319312436139870783e+02
8.312500000000000000e+01  1.825334389367660915e+05  4.170637957461940459e+02
8.325000000000000000e+01  1.800814969565699575e+05  4.318439040358518355e+02
8.337500000000000000e+01  1.806994399477512343e+05  4.423132397156555840e+02
8.350000000000000000e+01  1.777542329553978634e+05  4.574977979389454958e+02
8.362500000000000000e+01  1.759672868076381565e+05  4.275889912709157556e+02
8.375000000000000000e+01  1.748324611939970637e+05  4.578947359055506467e+02
8.387500000000000000e+01  1.733146747867768572e+05  4.213075342178436244e+02
8.400000000000000000e+01  1.739173197048169677e+05  4.573795138380436924e+02
8.412500000000000000e+01  1.729809714157245471e+05  3.550473958309656837e+02
8.425000000000000000e+01  1.734937757571685943e+05  3.999177015760510585e+02
8.437500000000000000e+01  1.751103389647034055e+05  4.169861151520713634e+02
8.450000000000000000e+01  1.736236617270550050e+05  3.953186469841803614e+02
8.462500000000000000e+01  1.753463963861272205e+05  4.574930162786940855e+02
8.475000000000000000e+01  1.758881200458987441e+05  4.232950151101450729e+02
8.487500000000000000e+01  1.771785391589576320e+05  4.553920797458864058e+02
8.500000000000000000e+01  1.772899496937108051e+05  4.342772960500773252e+02
8.512500000000000000e+01  1.784315432786429883e+05  4.580803130848926799e+02
8.525000000000000000e+01  1.786730916278924851e+05  4.344449018749606921e+02
8.537500000000000000e+01  1.786674518265225925e+05  4.369533763005081255e+02
8.550000000000000000e+01  1.798025953502451302e+05  3.667226696433115762e+02
8.562500000000000000e+01  1.805531724542750744e+05  3.969064422082953456e+02
8.575000000000000000e+01  1.810687891003023251e+05  4.101789162865649701e+02
8.587500000000000000e+01  1.802924293199537497e+05  4.230887974992512000e+02
8.600000000000000000e+01  1.801020565585558652e+05  4.641111982078392089e+02
8.612500000000000000e+01  1.806997901482169982e+05  4.286079018720703289e+02
8.625000000000000000e+01  1.800407596509114665e+05  4.563202785265538637e+02
8.637500000000000000e+01  1.795451768990092387e+05  4.342379330914773732e+02
8.650000000000000000e+01  1.791206454216286947e+05  4.551313586084704639e+02
8.662500000000000000e+01  1.776973581337676151e+05  4.293108537046231277e+02
8.675000000000000000e+01  1.752818398147301341e+05  4.465855453727180020e+02
8.687500000000000000e+01  1.754115186930366617e+05  3.471447390006561022e+02
8.700000000000000000e+01  1.725188731708170671e+05  3.753977905770449865e+02
8.712500000000000000e+01  1.701060874173680495e+05  4.170344246398650512e+02
8.725000000000000000e+01  1.683631567711951211e+05  4.179238594686531201e+02
8.737500000000000000e+01  1.681711919744190236e+05  4.441860064989353987e+02
8.750000000000000000e+01  1.663463431375808432e+05  4.156113737893945768e+02
8.762500000000000000e+01  1.650253553351243318e+05  4.318230725168314166e+02
8.775000000000000000e+01  1.645220687441929185e+05  4.124033692768996957e+02
8.787500000000000000e+01  1.631066481096287607e+05  3.540646760944565585e+02
8.800000000000000000e+01  1.612144057179738011e+05  1.121547490802948460e+03
8.812500000000000000e+01  1.641203314794145990e+05  3.753815837449101309e+02
8.825000000000000000e+01  1.626502335070569243e+05  3.184406280088024914e+02
8.837500000000000000e+01  1.624888970681772917e+05  3.655055360120387604e+02
8.850000000000000000e+01  1.614439414504331944e+05  4.307331722545173989e+02
8.862500000000000000e+01  1.620603194025631819e+05  4.052660624343334348e+02
8.875000000000000000e+01  1.615311877001646499e+05  4.273311843919699982e+02
8.887500000000000000e+01  1.623215363107150188e+05  4.089598980793685996e+02
8.900000000000000000e+01  1.617478050940496905e+05  4.298399423956448686e+02
8.912500000000000000e+01  1.610885368374683021e+05  4.053096558779678844e+02
8.925000000000000000e+01  1.623043197678375291e+05  4.328931033690173535e+02
8.937500000000000000e+01  1.628318830984330270e+05  4.079641638778974766e+02
8.950000000000000000e+01  1.628717606653533003e+05  4.350554284774481175e+02
8.962500000000000000e+01  1.633672832492913585e+05  2.961545384066503175e+02
8.975000000000000000e+01  1.617888160992733901e+05  4.024261252575268486e+02
8.987500000000000000e+01  1.625207622440598789e+05  4.305506777326123142e+02
9.000000000000000000e+01  1.627982404939553235e+05  4.026589135259483783e+02
9.012500000000000000e+01  1.623538667253563472e+05  4.291893033415156538e+02
9.025000000000000000e+01  1.621538774595154100e+05  4.037615541848728071e+02
9.037500000000000000e+01  1.630907215834969247e+05  4.359421270051444139e+02
9.050000000000000000e+01  1.627063440719484061e+05  4.046332463245466329e+02
9.062500000000000000e+01  1.617023156144665554e+05  4.250440659818992231e+02
9.075000000000000000e+01  1.621286393585417827e+05  4.101382456717674927e+02
9.087500000000000000e+01  1.622498667881423899e+05  4.009825958933400898e+02
9.100000000000000000e+01  1.611478690533982881e+05  3.032074999286506909e+02
9.112500000000000000e+01  1.611727613401496201e+05  4.025571963530525181e+02
9.125000000000000000e+01  1.607002203937283193e+05  4.255962849738487535e+02
9.137500000000000000e+01  1.589608061249173188e+05  3.979159073654782333e+02
9.150000000000000000e+01  1.584740022949026024e+05  4.283409686031843080e+02
9.162500000000000000e+01  1.603936370599561196e+05  3.982100183404638756e+02
9.175000000000000000e+01  1.588100282334794465e+05  4.285203945539589085e+02
9.187500000000000000e+01  1.584365603967500501e+05  3.932469610571760086e+02
9.200000000000000000e+01  1.579939737854056875e+05  4.253563414657863291e+02
9.212500000000000000e+01  1.570344863241436251e+05  3.990804644867184265e+02
9.225000000000000000e+01  1.577753115439630055e+05  3.549853434980279872e+02
9.237500000000000000e+01  1.572001016509918263e+05  3.186788268151939860e+02
9.250000000000000000e+01  1.569664602632113674e+05  3.956916915245581094e+02
9.262500000000000000e+01  1.574926999807999528e+05  4.241559275414122112e+02
9.275000000000000000e+01  1.579327257329219137e+05  4.032400851422255528e+02
9.287500000000000000e+01  1.567521409690672299e+05  4.128359778994556564e+02
9.300000000000000000e+01  1.564995446605501056e+05  4.012268101395384292e+02
9.312500000000000000e+01  1.575247629746806342e+05  4.228871745463564480e+02
9.325000000000000000e+01  1.566012336101487163e+05  3.905243384963118274e+02
9.337500000000000000e+01  1.574070041458946653e+05  4.181139829195181505e+02
9.350000000000000000e+01  1.574643710770282196e+05  3.716802059210187963e+02
9.362500000000000000e+01  1.567542626859429583e+05  3.632085495871386343e+02
9.375000000000000000e+01  1.574213995642462687e+05  3.299086465251064624e+02
9.387500000000000000e+01  1.574367837670532463e+05  3.950588697782439453e+02
9.400000000000000000e+01  1.581867316116000875e+05  4.191395510993631319e+02
9.412500000000000000e+01  1.578398211228245054e+05  4.026486744460860336e+02
9.425000000000000000e+01  1.575478133613471291e+05  4.128647752589027391e+02
9.437500000000000000e+01  1.575054327861061902e+05  3.999004027211416883e+02
9.450000000000000000e+01  1.571598532973100082e+05  4.125641122436110777e+02
9.462500000000000000e+01  1.584495310951015854e+05  4.039045107344003327e+02
9.475000000000000000e+01  1.568700877653881907e+05  3.925470885782066262e+02
9.487500000000000000e+01  1.573964291073725326e+05  3.713068153952366401e+02
9.500000000000000000e+01  1.571270676263997448e+05  3.655689998132118035e+02
9.512500000000000000e+01  1.570468556435199862e+05  3.389096185630307332e+02
9.525000000000000000e+01  1.572790368626523996e+05  3.960583056858901045e+02
9.537500000000000000e+01  1.568700879850500496e+05  4.186523110946788506e+02
9.550000000000000000e+01  1.565922577586301195e+05  3.924211294688007570e+02
9.562500000000000000e+01  1.563940584670725220e+05  4.104322025495498565e+02
9.575000000000000000e+01  1.551267445868326467e+05  3.951084545599316016e+02
9.587500000000000000e+01  1.567457192119913234e+05  4.135281571321932006e+02
9.600000000000000000e+01  1.561091564825437090e+05  3.832368211522982051e+02
9.612500000000000000e+01  1.573525997332935804e+05  3.870540833420992612e+02
9.625000000000000000e+01  1.578889666751444747e+05  3.773351927147887181e+02
9.637500000000000000e+01  1.575767970565462892e+05  3.704225140649380705e+02
9.650000000000000000e+01  1.584708738315115625e+05  3.474912603170677130e+02
9.662500000000000000e+01  1.592964935942769516e+05  3.796046036857578088e+02
9.675000000000000000e+01  1.624713477815533697e+05  4.212099948754825505e+02
9.687500000000000000e+01  1.619646670687668957e+05  3.982361810862972220e+02
9.700000000000000000e+01  1.637149136892581300e+05  4.257004962851211758e+02
9.712500000000000000e+01  1.658685634317420190e+05  4.049105072424202376e+02
9.725000000000000000e+01  1.654924988930858381e+05  4.115112170776422431e+02
9.737500000000000000e+01  1.674962518243847298e+05  3.891244124903321904e+02
9.750000000000000000e+01  1.702668012379964930e+05  4.017984423593204042e+02
9.762500000000000000e+01  1.700622326598178188e+05  3.893674709218796579e+02
9.775000000000000000e+01  1.722868015091244888e+05  3.866072911054409929e+02
9.787500000000000000e+01  1.732996495126485825e+05  3.693703351110131621e+02
9.800000000000000000e+01  1.752791509268491354e+05  3.870655233361756586e+02
9.812500000000000000e+01  1.767982614512320433e+05  4.360009762109912117e+02
9.825000000000000000e+01  1.776749741665678448e+05  4.123576971504064659e+02
9.837500000000000000e+01  1.773194858406049025e+05  4.311574233770581941e+02
9.850000000000000000e+01  1.789816731236245541e+05  4.010099752019860375e+02
9.862500000000000000e+01  1.789915734122410649e+05  4.217220423175804171e+02
9.875000000000000000e+01  1.779202684533952270e+05  3.866507377633661235e+02
9.887500000000000000e+01  1.774903560134054860e+05  4.061362178141589538e+02
9.900000000000000000e+01  1.771381280182521441e+05  3.939341425100814149e+02
9.912500000000000000e+01  1.748644761056441057e+05  3.829098109183638599e+02
9.925000000000000000e+01  1.742307653276613273e+05  3.748519464238672754e+02
9.937500000000000000e+01  1.715454169500577846e+05  3.584504590065292859e+02
9.950000000000000000e+01  1.715457352826079878e+05  4.231957719953591095e+02
9.962500000000000000e+01  1.689008542270971229e+05  3.928107424862745916e+02
9.975000000000000000e+01  1.660761989576318592e+05  4.026175446048505364e+02
9.987500000000000000e+01  1.642513827861410682e+05  3.703697932603594154e+02
1.000000000000000000e+02  1.615985156154755969e+05  3.821096788120794940e+02
1.001250000000000000e+02  1.603035233698693046e+05  3.729259783103964878e+02
1.002500000000000000e+02  1.582248624624799122e+05  3.754087099572533930e+02
1.003750000000000000e+02  1.562493849707771442e+05  3.581403750379915891e+02
1.005000000000000000e+02  1.546337129449385684e+05  3.570094110217634125e+02
1.006250000000000000e+02  1.529665475644204707e+05  3.509007027289663938e+02
1.007500000000000000e+02  1.517130322197920759e+05  3.368889541685407494e+02
1.008750000000000000e+02  1.501408701147215324e+05  3.842761329242782153e+02
1.010000000000000000e+02  1.500340298577517970e+05  3.655280865300085793e+02
1.011250000000000000e+02  1.494474123078501434e+05  3.771916650765029431e+02
1.012500000000000000e+02  1.500295955965916219e+05  3.574291828603212480e+02
1.013750000000000000e+02  1.505054718380760460e+05  3.741013104912516383e+02
1.015000000000000000e+02  1.491397059663534164e+05  3.592726682562841347e+02
1.016250000000000000e+02  1.508113819351562415e+05  3.702936544702125730e+02
1.017500000000000000e+02  1.499182541485339461e+05  3.602316156843759245e+02
1.018750000000000000e+02  1.512625320841706125e+05  3.655124112042142315e+02
1.020000000000000000e+02  1.516328181293345697e+05  3.599303730110078163e+02
1.021250000000000000e+02  1.523267596934929607e+05  3.409011727668435014e+02
1.022500000000000000e+02  1.508027653393397341e+05  3.890211042322911794e+02
1.023750000000000000e+02  1.511674928129083419e+05  3.677899666549188851e+02
1.025000000000000000e+02  1.523387013618148922e+05  3.290122274304090979e+02
1.026250000000000000e+02  1.517004874634962471e+05  6.742643463163213937e+02
1.027500000000000000e+02  1.534241035027938779e+05  3.403873590543368550e+02
1.028750000000000000e+02  1.525152634371824679e+05  3.689102130510980260e+02
1.030000000000000000e+02  1.533519902659535292e+05  3.797994404741078824e+02
1.031250000000000000e+02  1.541546918072777335e+05  3.767205908654730138e+02
1.032500000000000000e+02  1.539165297645563551e+05  3.710879543403469256e+02
1.033750000000000000e+02  1.536032189660400327e+05  3.661081860956485912e+02
1.035000000000000000e+02  1.545004017416908464e+05  3.498511906811437484e+02
1.036250000000000000e+02  1.544836653173244558e+05  3.916555505677875431e+02
1.037500000000000000e+02  1.548089048432330019e+05  3.825895765129313304e+02
1.038750000000000000e+02  1.550287942904652446e+05  3.883129140903755570e+02
1.040000000000000000e+02  1.544118950022146455e+05  3.769913335815143114e+02
1.041250000000000000e+02  1.554858256350483280e+05  3.888044855232665213e+02
1.042500000000000000e+02  1.576786161535095598e+05  3.809429096415339018e+02
1.043750000000000000e+02  1.582849279842138931e+05  3.874961103892391066e+02
1.045000000000000000e+02  1.593028222657087026e+05  3.796132178546450291e+02
1.046250000000000000e+02  1.597070430945692642e+05  3.825825998870270155e+02
1.047500000000000000e+02  1.591226052942950046e+05  3.760765486528857764e+02
1.048750000000000000e+02  1.621468831576028897e+05  3.532209480180166565e+02
1.050000000000000000e+02  1.629496281357068219e+05  3.995039579445798381e+02
1.051250000000000000e+02  1.642335273531976563e+05  3.897517101787788079e+02
1.052500000000000000e+02  1.643197440397260070e+05  4.074441214529235253e+02
1.053750000000000000e+02  1.639839093594320584e+05  3.908446670610276783e+02
1.055000000000000000e+02  1.649662895342112461e+05  3.976234306623815087e+02
1.056250000000000000e+02  1.654788747521326586e+05  3.916969715145266946e+02
1.057500000000000000e+02  1.653617543368304905e+05  3.993208640995363226e+02
1.058750000000000000e+02  1.660010726199671335e+05  3.930718134375493378e+02
1.060000000000000000e+02  1.666706716887304210e+05  3.868120658431857919e+02
1.061250000000000000e+02  1.662337517375456227e+05  3.871128347869591835e+02
1.062500000000000000e+02  1.664834415958250465e+05  3.530949821491686862e+02
1.063750000000000000e+02  1.665770198704693757e+05  4.090937316019247305e+02
1.065000000000000000e+02  1.665277809340249223e+05  3.886288000641486633e+02
1.066250000000000000e+02  1.662730252864238573e+05  4.067106055702483900e+02
1.067500000000000000e+02  1.652116071869319712e+05  3.912342569510118437e+02
1.068750000000000000e+02  1.644636305385130108e+05  4.013445474435169444e+02
1.070000000000000000e+02  1.629324737452447880e+05  3.847490396133295576e+02
1.071250000000000000e+02  1.631229923320926609e+05  3.937872038206816114e+02
1.072500000000000000e+02  1.623767358478246315e+05  3.900189291193692043e+02
1.073750000000000000e+02  1.611356590828435146e+05  3.806695209347521995e+02
1.075000000000000000e+02  1.604037128794981982e+05  3.766528591788634230e+02
1.076250000000000000e+02  1.597590133576808439e+05  3.446004498806174752e+02
1.077500000000000000e+02  1.592101861910422449e+05  4.003580911076655866e+02
1.078750000000000000e+02  1.571172045645271137e+05  3.836088303753975879e+02
1.080000000000000000e+02  1.564915908503959654e+05  3.923154791348741810e+02
1.081250000000000000e+02  1.557007076100486738e+05  3.807125002646221219e+02
1.082500000000000000e+02  1.557330481455501576e+05  3.863344670097066000e+02
1.083750000000000000e+02  1.539155535337527690e+05  3.816589942725456126e+02
1.085000000000000000e+02  1.545764897937461792e+05  3.854763320466032042e+02
1.086250000000000000e+02  1.528610153551106341e+05  3.746053464087372618e+02
1.087500000000000000e+02  1.533744908935583080e+05  3.710384812359391162e+02
1.088750000000000000e+02  1.536422836421461252e+05  3.670792332002849321e+02
1.090000000000000000e+02  1.519713783001601987e+05  3.513124774544162392e+02
1.091250000000000000e+02  1.530386196857872128e+05  3.696024388857711074e+02
1.092500000000000000e+02  1.534679464622007217e+05  3.814661124779978536e+02
1.093750000000000000e+02  1.534718384541009145e+05  3.905515158382568757e+02
1.095000000000000000e+02  1.539131839259439730e+05  3.755734373088208145e+02
1.096250000000000000e+02  1.553527053775821696e+05  3.835728960989831080e+02
1.097500000000000000e+02  1.554929762458444457e+05  3.868104164057327239e+02
1.098750000000000000e+02  1.560407385790488333e+05  3.870001344741474441e+02
1.100000000000000000e+02  1.577495642121611745e+05  3.779194309805018861e+02
1.101250000000000000e+02  1.592734846734385064e+05  3.802186201425840295e+02
1.102500000000000000e+02  1.586212467542492959e+05  3.739673675986167609e+02
1.103750000000000000e+02  1.602257050275648944e+05  3.626074059723104028e+02
1.105000000000000000e+02  1.604936147032580338e+05  3.793274400317269510e+02
1.106250000000000000e+02  1.604911246519486886e+05  3.874845523778993197e+02
1.107500000000000000e+02  1.621941741916225001e+05  3.999360789264499658e+02
1.108750000000000000e+02  1.622147935626540566e+05  3.884061450694761675e+02
1.110000000000000000e+02  1.640638077722070157e+05  3.998999742796227110e+02
1.111250000000000000e+02  1.648000158191069204e+05  3.923064944679290988e+02
1.112500000000000000e+02  1.643655501553508220e+05  3.892492809706209300e+02
1.113750000000000000e+02  1.652530464844953094e+05  3.890138060255349615e+02
1.115000000000000000e+02  1.661193518343207543e+05  3.816577356289062664e+02
1.116250000000000000e+02  1.679935469484103669e+05  3.897038409597242890e+02
1.117500000000000000e+02  1.682315664006801671e+05  3.779187122164845505e+02
1.118750000000000000e+02  1.693837567797406227e+05  3.791965651689113770e+02
1.120000000000000000e+02  1.702670102334538533e+05  4.006471137983023709e+02
1.121250000000000000e+02  1.705643484653315973e+05  3.984691554419767385e+02
1.122500000000000000e+02  1.701711613880970399e+05  4.198392538530112574e+02
1.123750000000000000e+02  1.717131992694241635e+05  4.082327573461610655e+02
1.125000000000000000e+02  1.715621080512574408e+05  3.919293213004685867e+02
1.126250000000000000e+02  1.727048454793206183e+05  4.010258515907628976e+02
1.127500000000000000e+02  1.716957601077445725e+05  4.013215666492650371e+02
1.128750000000000000e+02  1.717310263820354885e+05  3.932222851319129973e+02
1.130000000000000000e+02  1.719816613823805237e+05  3.897767178528314389e+02
1.131250000000000000e+02  1.720468996248889598e+05  3.815406197256525047e+02
1.132500000000000000e+02  1.708393440708700218e+05  3.833457207484938749e+02
1.133750000000000000e+02  1.729940590395250183e+05  4.005855357062674784e+02
1.135000000000000000e+02  1.726931008453636314e+05  4.193099596100535678e+02
1.136250000000000000e+02  1.715967428865201073e+05  3.994826377720715982e+02
1.137500000000000000e+02  1.715704915735120012e+05  3.993209007109202275e+02
1.138750000000000000e+02  1.705688771395490621e+05  3.924256387319210830e+02
1.140000000000000000e+02  1.717068961738430953e+05  4.057507626184776086e+02
1.141250000000000000e+02  1.713352572545564908e+05  3.942723264087384791e+02
1.142500000000000000e+02  1.699055755552635528e+05  3.962107116786268080e+02
1.143750000000000000e+02  1.706623757841307670e+05  3.927571870599784347e+02
1.145000000000000000e+02  1.699580274598635151e+05  3.849798427286415858e+02
1.146250000000000000e+02  1.695755205664144014e+05  3.745634740166727852e+02
1.147500000000000000e+02  1.710776340465996764e+05  4.035983747394064949e+02
1.148750000000000000e+02  1.696442153107579215e+05  4.081619736146951709e+02
1.150000000000000000e+02  1.702407987497278664e+05  3.960663067831038688e+02
1.151250000000000000e+02  1.691659872574756446e+05  3.972094260607750584e+02
1.152500000000000000e+02  1.698079288792635489e+05  3.998403764860956358e+02
1.153750000000000000e+02  1.704363301123396668e+05  4.002650794607943112e+02
1.155000000000000000e+02  1.698999649936394417e+05  3.952701457055970309e+02
1.156250000000000000e+02  1.701668060006026062e+05  3.974439091007082538e+02
1.157500000000000000e+02  1.698391615035818832e+05  3.919561248429392322e+02
1.158750000000000000e+02  1.702951570901198720e+05  3.822333755215040014e+02
1.160000000000000000e+02  1.697033213684422371e+05  3.772265525434727920e+02
1.161250000000000000e+02  1.704549605021257303e+05  3.988617550056752066e+02
1.162500000000000000e+02  1.704370435739008826e+05  4.078842143620998399e+02
1.163750000000000000e+02  1.722363759903328028e+05  4.002835217301577018e+02
1.165000000000000000e+02  1.699864924318970880e+05  4.031309033034441427e+02
1.166250000000000000e+02  1.711220013930384011e+05  3.985578317781006490e+02
1.167500000000000000e+02  1.709429177983707050e+05  4.010634546430459295e+02
1.168750000000000000e+02  1.711633611990001227e+05  3.942422756551544580e+02
1.170000000000000000e+02  1.718102429523821338e+05  3.798648779702908200e+02
1.171250000000000000e+02  1.727075462539846194e+05  3.723330221302118730e+02
1.172500000000000000e+02  1.722963189052625385e+05  4.236907170106561011e+02
1.173750000000000000e+02  1.728831689663384750e+05  3.561287321876664009e+02
1.175000000000000000e+02  1.735934367618043034e+05  5.127939436652053473e+02
1.176250000000000000e+02  1.735957621917040669e+05  4.425785572488661614e+02
1.177500000000000000e+02  1.739052355363713286e+05  3.781558459606136466e+02
1.178750000000000000e+02  1.745406382578201883e+05  4.084624323724113992e+02
1.180000000000000000e+02  1.737223693840894848e+05  4.026229827384383384e+02
1.181250000000000000e+02  1.733026824394842261e+05  4.004807225329780067e+02
1.182500000000000000e+02  1.737675560444100993e+05  3.982091841856193355e+02
1.183750000000000000e+02  1.749758499077600427e+05  4.003091325205141970e+02
1.185000000000000000e+02  1.747251015845167858e+05  3.996538997652375542e+02
1.186250000000000000e+02  1.751538389155427576e+05  3.939604046491101030e+02
1.187500000000000000e+02  1.756624761671549932e+05  3.766520924776046968e+02
1.188750000000000000e+02  1.747173004423241655e+05  4.019177449759449701e+02
1.190000000000000000e+02  1.754750597386925074e+05  4.097123282647273186e+02
1.191250000000000000e+02  1.741804496858743660e+05  4.014866765870133918e+02
1.192500000000000000e+02  1.752942806715193728e+05  4.116080149082925459e+02
1.193750000000000000e+02  1.746870783540296543e+05  3.968961753946388740e+02
1.195000000000000000e+02  1.737845119362595724e+05  4.034099942947136697e+02
1.196250000000000000e+02  1.736352922837976657e+05  4.003300666038770146e+02
1.197500000000000000e+02  1.741391638635266572e+05  4.020992744051045520e+02
1.198750000000000000e+02  1.735068432894707948e+05  3.933546144887372407e+02
1.200000000000000000e+02  1.738800797857973375e+05  3.905770947621350047e+02
1.201250000000000000e+02  1.729463651265534572e+05  3.758194221212783077e+02
1.202500000000000000e+02  1.720578208546534006e+05  3.914369922637991408e+02
1.203750000000000000e+02  1.713198996893774893e+05  4.088594116522263562e+02
1.205000000000000000e+02  1.707947786333739350e+05  3.950091983813319416e+02
1.206250000000000000e+02  1.712500671197876218e+05  4.062360705845639472e+02
1.207500000000000000e+02  1.713019047963781341e+05  3.997931195886853857e+02
1.208750000000000000e+02  1.700048260297572124e+05  3.996641164997701594e+02
1.210000000000000000e+02  1.701322325120216119e+05  3.940442626538506943e+02
1.211250000000000000e+02  1.696324087105437065e+05  3.914154019081595948e+02
1.212500000000000000e+02  1.691608232184814406e+05  3.859725822485783056e+02
1.213750000000000000e+02  1.702335545856706449e+05  3.913135880552741241e+02
1.215000000000000000e+02  1.695125194699925487e+05  3.755464214202107200e+02
1.216250000000000000e+02  1.680741413043326174e+05  3.812656009552142109e+02
1.217500000000000000e+02  1.698147717689532437e+05  4.032467624292432333e+02
1.218750000000000000e+02  1.691357293807372625e+05  3.985803500394926004e+02
1.220000000000000000e+02  1.682073819342877541e+05  3.999341595133047917e+02
1.221250000000000000e+02  1.688563476067238371e+05  3.950345162538004047e+02
1.222500000000000000e+02  1.680037490341551893e+05  3.984007270129219478e+02
1.223750000000000000e+02  1.690796073870188266e+05  3.884445440003360090e+02
1.225000000000000000e+02  1.685414048454243457e+05  3.966327954735775165e+02
1.226250000000000000e+02  1.690268376002040750e+05  3.893563168080459604e+02
1.227500000000000000e+02  1.694662694432298304e+05  3.845997340314880262e+02
1.228750000000000000e+02  1.679235228978188534e+05  3.810092282248496645e+02
1.230000000000000000e+02  1.668953431611849810e+05  3.742339676164982620e+02
1.231250000000000000e+02  1.673879086832969624e+05  4.027286639940065811e+02
1.232500000000000000e+02  1.665042983476870286e+05  3.940204548693517950e+02
1.233750000000000000e+02  1.679773555799006426e+05  3.999937058471242608e+02
1.235000000000000000e+02  1.665574695786586090e+05  3.918858262083925865e+02
1.236250000000000000e+02  1.662793094162048656e+05  3.910571223353689447e+02
1.237500000000000000e+02  1.658401397962779156e+05  3.892253316410343018e+02
1.238750000000000000e+02  1.667626357450723590e+05  3.958696280586716512e+02
1.240000000000000000e+02  1.652220149772235891e+05  3.807403601545543097e+02
1.241250000000000000e+02  1.646774113921958487e+05  3.805091835639174178e+02
1.242500000000000000e+02  1.647472659632307768e+05  3.802242477100992346e+02
1.243750000000000000e+02  1.633216194024611905e+05  3.704933837194021748e+02
1.245000000000000000e+02  1.649465557838850364e+05  4.078277958572937223e+02
1.246250000000000000e+02  1.647314942765995220e+05  3.870542618203135135e+02
1.247500000000000000e+02  1.629720473089872976e+05  3.958489991038520657e+02
1.248750000000000000e+02  1.606408766836525465e+05  3.774345836951077331e+02
1.250000000000000000e+02  1.625927359209151764e+05  3.936523952712527716e+02
1.251250000000000000e+02  1.608151740041428711e+05  3.800269494687946690e+02
1.252500000000000000e+02  1.614170905840852938e+05  3.893073735724545941e+02
1.253750000000000000e+02  1.610551225353596965e+05  3.820152787861986781e+02
1.255000000000000000e+02  1.609613984814438736e+05  3.805010725684928730e+02
1.256250000000000000e+02  1.599601929236736905e+05  3.737979494391291837e+02
1.257500000000000000e+02  1.594391672966104816e+05  3.618593026320327226e+02
1.258750000000000000e+02  1.583995619120652264e+05  3.903314518455039206e+02
1.260000000000000000e+02  1.596504918560822261e+05  3.823275751824268127e+02
1.261250000000000000e+02  1.584626975613957329e+05  3.901992512653172867e+02
1.262500000000000000e+02  1.598001291896288458e+05  3.805444585065732213e+02
1.263750000000000000e+02  1.582083820629120455e+05  3.887664984758949913e+02
1.265000000000000000e+02  1.587316393806888082e+05  3.781340284246647343e+02
1.266250000000000000e+02  1.580773974516972376e+05  3.817760073878101821e+02
1.267500000000000000e+02  1.585515971948051883e+05  3.811622811622968925e+02
1.268750000000000000e+02  1.576195481182282674e+05  3.764076413551234168e+02
1.270000000000000000e+02  1.578417511770662677e+05  3.750437728554054502e+02
1.271250000000000000e+02  1.579258444176006305e+05  3.623506010909534893e+02
1.272500000000000000e+02  1.578876873122205725e+05  3.826515066245426056e+02
1.273750000000000000e+02  1.578026900167956192e+05  3.834411536669000498e+02
1.275000000000000000e+02  1.579606922425584344e+05  3.881109804375780641e+02
1.276250000000000000e+02  1.579759925008637074e+05  3.764396708223904398e+02
1.277500000000000000e+02  1.578076470651085838e+05  3.873563062736176903e+02
1.278750000000000000e+02  1.578225528983888507e+05  3.800052711414568307e+02
1.280000000000000000e+02  1.578897193640007463e+05  3.852768366210584077e+02
1.281250000000000000e+02  1.585378158569934894e+05  3.785379364433634350e+02
1.282500000000000000e+02  1.582747366763124592e+05  3.807388243526002611e+02
1.283750000000000000e+02  1.585856144692809321e+05  3.748398589240512706e+02
1.285000000000000000e+02  1.584477458862114872e+05  3.607510211121187922e+02
1.286250000000000000e+02  1.574437325964582560e+05  3.875585732953839511e+02
1.287500000000000000e+02  1.575033280455888307e+05  3.778340423294768584e+02
1.288750000000000000e+02  1.601979458468216471e+05  3.944278924616373274e+02
1.290000000000000000e+02  1.591171449614659359e+05  3.831024021426246691e+02
1.291250000000000000e+02  1.599898797412475396e+05  3.904178460036575871e+02
1.292500000000000000e+02  1.592335962649886787e+05  3.799091229216949159e+02
1.293750000000000000e+02  1.596230846706478333e+05  3.869471458637529508e+02
1.295000000000000000e+02  1.601849347590768302e+05  3.862121083164020661e+02
1.296250000000000000e+02  1.604191159348473011e+05  3.778324092598199968e+02
1.297500000000000000e+02  1.593958960233535327e+05  3.784727396048462538e+02
1.298750000000000000e+02  1.602875233020429441e+05  3.607655373239221035e+02
1.300000000000000000e+02  1.600081228812724585e+05  3.931000105969495166e+02
1.301250000000000000e+02  1.612442143240579462e+05  3.859317687653773987e+02
1.302500000000000000e+02  1.613271063203065132e+05  3.941413291515916058e+02
1.303750000000000000e+02  1.610262943168287457e+05  3.856842551860097501e+02
1.305000000000000000e+02  1.618041911966795451e+05  3.920628275889869769e+02
1.306250000000000000e+02  1.628178153479170869e+05  3.919374448571555263e+02
1.307500000000000000e+02  1.625286805804221367e+05  3.890261467886292621e+02
1.308750000000000000e+02  1.618390182382111961e+05  3.876675589242670981e+02
1.310000000000000000e+02  1.618060128281789366e+05  3.843611777457006724e+02
1.311250000000000000e+02  1.619168070325255394e+05  3.891039453897884073e+02
1.312500000000000000e+02  1.624281466244043258e+05  3.696602610346888582e+02
1.313750000000000000e+02  1.628784829598941142e+05  4.131032145634226822e+02
1.315000000000000000e+02  1.630714530904287240e+05  3.967217314180753078e+02
1.316250000000000000e+02  1.643443824241162802e+05  4.118971510115218848e+02
1.317500000000000000e+02  1.650988817838368414e+05  4.332498212478441815e+02
1.318750000000000000e+02  1.645450843009882956e+05  4.910765350882351186e+02
1.320000000000000000e+02  1.651788290693567542e+05  1.308062523861763111e+03
