# DMC at SINQ, PSI: Sample name = Unknown, wavelength = 2.450 AA, T = 0.0 K
# Filelist='dmc:2022:581'
#   0.000   0.125 132.000     142., sample="Unknown"
0.000000000000000000e+00  1.599270000000115251e+05  3.892562275890348701e+03
1.250000000000000000e-01  1.599270000000115251e+05  2.714528987827783112e+03
2.500000000000000000e-01  1.599270000000115833e+05  1.754264801009005168e+03
3.750000000000000000e-01  1.599270000000116415e+05  1.756273481645271659e+03
5.000000000000000000e-01  1.599270000000114378e+05  1.329497500019186418e+03
6.250000000000000000e-01  1.599270000000115542e+05  1.319280050733325652e+03
7.500000000000000000e-01  1.599270000000115542e+05  1.100435398742572488e+03
8.750000000000000000e-01  1.599270000000115542e+05  1.053086125850047893e+03
1.000000000000000000e+00  1.599270000000117288e+05  1.059560761592317021e+03
1.125000000000000000e+00  1.599270000000114087e+05  8.922364166735239905e+02
1.250000000000000000e+00  1.599270000000115833e+05  9.343672914998459191e+02
1.375000000000000000e+00  1.599270000000117871e+05  8.163579404018508967e+02
1.500000000000000000e+00  1.599270000000116706e+05  8.660024701103724283e+02
1.625000000000000000e+00  1.599270000000111177e+05  7.743854448923410700e+02
1.750000000000000000e+00  1.599270000000118744e+05  8.100815269356102135e+02
1.875000000000000000e+00  1.599270000000114960e+05  7.243489649619810962e+02
2.000000000000000000e+00  1.599270000000118453e+05  7.535515325987695405e+02
2.125000000000000000e+00  1.599270000000110595e+05  6.803125636024606138e+02
2.250000000000000000e+00  1.599270000000119326e+05  6.792073021052858621e+02
2.375000000000000000e+00  1.599270000000113796e+05  6.578573396088294203e+02
2.500000000000000000e+00  1.599270000000108848e+05  6.353667566308902224e+02
2.625000000000000000e+00  1.599270000000114087e+05  6.528557212261341647e+02
2.750000000000000000e+00  1.599270000000118453e+05  6.060319594194118054e+02
2.875000000000000000e+00  1.599270000000116706e+05  6.182488177881716638e+02
3.000000000000000000e+00  1.599270000000123400e+05  5.885798044659409243e+02
3.125000000000000000e+00  1.599270000000123400e+05  5.789784077648639595e+02
3.250000000000000000e+00  1.599270000000116997e+05  5.814912174054932166e+02
3.375000000000000000e+00  1.599270000000119326e+05  5.531786512451368480e+02
3.500000000000000000e+00  1.599270000000108848e+05  5.386213160862494078e+02
3.625000000000000000e+00  1.599270000000116706e+05  5.317593124729827423e+02
3.750000000000000000e+00  1.599270000000117288e+05  5.316329595250114153e+02
3.875000000000000000e+00  1.599270000000116997e+05  5.136429398510317696e+02
4.000000000000000000e+00  1.599270000000124855e+05  5.184952497198474930e+02
4.125000000000000000e+00  1.599270000000122236e+05  5.024755385139729356e+02
4.250000000000000000e+00  1.599270000000123400e+05  5.004541110049610211e+02
4.375000000000000000e+00  1.599270000000113505e+05  4.967827067356924431e+02
4.500000000000000000e+00  1.599270000000115251e+05  4.725450314876758284e+02
4.625000000000000000e+00  1.599270000000105356e+05  4.861294974789487355e+02
4.750000000000000000e+00  1.599270000000111759e+05  4.580499208877729416e+02
4.875000000000000000e+00  1.599270000000121072e+05  4.762453816523793080e+02
5.000000000000000000e+00  1.599270000000114669e+05  4.398830969601576726e+02
5.125000000000000000e+00  1.599270000000128639e+05  4.599783377693654529e+02
5.250000000000000000e+00  1.599270000000131258e+05  4.436174131572954593e+02
5.375000000000000000e+00  1.599270000000140280e+05  4.548633380345743831e+02
5.500000000000000000e+00  1.599270000000129803e+05  4.342796984969972982e+02
5.625000000000000000e+00  1.599270000000098662e+05  4.209742397026503795e+02
5.750000000000000000e+00  1.599270000000116997e+05  4.320899722386211010e+02
5.875000000000000000e+00  1.599270000000142900e+05  4.143186528497780046e+02
6.000000000000000000e+00  1.599270000000116706e+05  4.288743249445003016e+02
6.125000000000000000e+00  1.599270000000120199e+05  4.052643834504200413e+02
6.250000000000000000e+00  1.599270000000133005e+05  4.126615954870546261e+02
6.375000000000000000e+00  1.599270000000132131e+05  3.969035141790107559e+02
6.500000000000000000e+00  1.599270000000113796e+05  4.035049836771353284e+02
6.625000000000000000e+00  1.599270000000131840e+05  3.877727561057066623e+02
6.750000000000000000e+00  1.599270000000087311e+05  3.933258817193712957e+02
6.875000000000000000e+00  1.599270000000140280e+05  3.783466519645370454e+02
7.000000000000000000e+00  1.599270000000115542e+05  3.873471435448865350e+02
7.125000000000000000e+00  1.599270000000134751e+05  3.778742739320566670e+02
7.250000000000000000e+00  1.599270000000106811e+05  3.877818754499497231e+02
7.375000000000000000e+00  1.599270000000088185e+05  3.945124563170250553e+02
7.500000000000000000e+00  1.599270000000090513e+05  3.950043185678002828e+02
7.625000000000000000e+00  1.599270000000116415e+05  3.902644027160553151e+02
7.750000000000000000e+00  1.599270000000112632e+05  3.935842692308657433e+02
7.875000000000000000e+00  1.599270000000138825e+05  3.866152838813562198e+02
8.000000000000000000e+00  1.599270000000119908e+05  3.905703661179754249e+02
8.125000000000000000e+00  1.599270000000107975e+05  3.865249394857840457e+02
8.250000000000000000e+00  1.599270000000093132e+05  3.825424635045043260e+02
8.375000000000000000e+00  1.599270000000143773e+05  3.953107058519543671e+02
8.500000000000000000e+00  1.599270000000098371e+05  3.809643476430094893e+02
8.625000000000000000e+00  1.599270000000119617e+05  3.882501050162688898e+02
8.750000000000000000e+00  1.599270000000096625e+05  3.835455577512551031e+02
8.875000000000000000e+00  1.599270000000088185e+05  3.877727561056962031e+02
9.000000000000000000e+00  1.599270000000102445e+05  3.808843873459999827e+02
9.125000000000000000e+00  1.599270000000112632e+05  3.640067065268679585e+02
9.250000000000000000e+00  1.599270000000115542e+05  3.886132913399051176e+02
9.375000000000000000e+00  1.599270000000083819e+05  3.593239207394376535e+02
9.500000000000000000e+00  1.599270000000105065e+05  3.925171076100201049e+02
9.625000000000000000e+00  1.599270000000107975e+05  3.640265085384870645e+02
9.750000000000000000e+00  1.599270000000092259e+05  3.801927844011096340e+02
9.875000000000000000e+00  1.599270000000120781e+05  3.673600920364500553e+02
1.000000000000000000e+01  1.599270000000111177e+05  3.692459931777158317e+02
1.012500000000000000e+01  1.599270000000099826e+05  3.748067168119283679e+02
1.025000000000000000e+01  1.599270000000117871e+05  3.691672840853335629e+02
1.037500000000000000e+01  1.599270000000110304e+05  3.766858748637013719e+02
1.050000000000000000e+01  1.599270000000104192e+05  3.571935389738680442e+02
1.062500000000000000e+01  1.599270000000124855e+05  3.744131098645997326e+02
1.075000000000000000e+01  1.599270000000096916e+05  3.632828568790209260e+02
1.087500000000000000e+01  1.599270000000125438e+05  3.743156706871949950e+02
1.100000000000000000e+01  1.599270000000107975e+05  3.699695169259303498e+02
1.112500000000000000e+01  1.599270000000084983e+05  3.706007528991805202e+02
1.125000000000000000e+01  1.599270000000145810e+05  3.773658355677691816e+02
1.137500000000000000e+01  1.599270000000136497e+05  3.743002925069955609e+02
1.150000000000000000e+01  1.599270000000089640e+05  3.743248985051708928e+02
1.162500000000000000e+01  1.599270000000091386e+05  3.751200211317232629e+02
1.175000000000000000e+01  1.599270000000103610e+05  3.759212707824056565e+02
1.187500000000000000e+01  1.599270000000118162e+05  3.662707576341667277e+02
1.200000000000000000e+01  1.599270000000129221e+05  3.781065429914242486e+02
1.212500000000000000e+01  1.599270000000086438e+05  3.626732994940429080e+02
1.225000000000000000e+01  1.599270000000045984e+05  3.866378798803875725e+02
1.237500000000000000e+01  1.599270000000083528e+05  3.644942081353672734e+02
1.250000000000000000e+01  1.599270000000162690e+05  3.876713467739982661e+02
1.262500000000000000e+01  1.599270000000136788e+05  3.737336493929339554e+02
1.275000000000000000e+01  1.599270000000122818e+05  3.793052814673055195e+02
1.287500000000000000e+01  1.599270000000156870e+05  3.697776111832345123e+02
1.300000000000000000e+01  1.599270000000113505e+05  3.862081060075782375e+02
1.312500000000000000e+01  1.599270000000096043e+05  3.748118634955045536e+02
1.325000000000000000e+01  1.599270000000127475e+05  3.728084413691618124e+02
1.337500000000000000e+01  1.599270000000128348e+05  3.770028717552307285e+02
1.350000000000000000e+01  1.599270000000144355e+05  3.671983466424569542e+02
1.362500000000000000e+01  1.599270000000077707e+05  3.878605565088510048e+02
1.375000000000000000e+01  1.599270000000106520e+05  3.682647558987313801e+02
1.387500000000000000e+01  1.599270000000053551e+05  3.864888194572383213e+02
1.400000000000000000e+01  1.599270000000165601e+05  3.762259286811873835e+02
1.412500000000000000e+01  1.599270000000104483e+05  3.826486618931403427e+02
1.425000000000000000e+01  1.599270000000106229e+05  3.745013836156426805e+02
1.437500000000000000e+01  1.599270000000094296e+05  3.892689113206238858e+02
1.450000000000000000e+01  1.599270000000100408e+05  3.466955156275452055e+02
1.462500000000000000e+01  1.599270000000167929e+05  3.920097339125836697e+02
1.475000000000000000e+01  1.599270000000190048e+05  3.793447601466456263e+02
1.487500000000000000e+01  1.599270000000089349e+05  3.805531970704882951e+02
1.500000000000000000e+01  1.599270000000084110e+05  3.841458957759157897e+02
1.512500000000000000e+01  1.599270000000108266e+05  3.791336392554671875e+02
1.525000000000000000e+01  1.599270000000126893e+05  3.854244551741523424e+02
1.537500000000000000e+01  1.599270000000157743e+05  3.812868604081226067e+02
1.550000000000000000e+01  1.599270000000144646e+05  3.919143789035263694e+02
1.562500000000000000e+01  1.599270000000138825e+05  3.720671603437131694e+02
1.575000000000000000e+01  1.599270000000117288e+05  3.909214218048097678e+02
1.587500000000000000e+01  1.599270000000111177e+05  3.770311578529385201e+02
1.600000000000000000e+01  1.599270000000119908e+05  3.779143625518239560e+02
1.612500000000000000e+01  1.599270000000097207e+05  3.747418867588268085e+02
1.625000000000000000e+01  1.599270000000157452e+05  3.840860673869956372e+02
1.637500000000000000e+01  1.599270000000112341e+05  3.777151003936560301e+02
1.650000000000000000e+01  1.599270000000109430e+05  3.857561940411851538e+02
1.662500000000000000e+01  1.599270000000099826e+05  3.772744714488360955e+02
1.675000000000000000e+01  1.599270000000119326e+05  3.841813628315888991e+02
1.687500000000000000e+01  1.599270000000127766e+05  3.781879384071212371e+02
1.700000000000000000e+01  1.599270000000133296e+05  3.855375536426373628e+02
1.712500000000000000e+01  1.599270000000106520e+05  3.852779112631555449e+02
1.725000000000000000e+01  1.599270000000140280e+05  3.835610007472670304e+02
1.737500000000000000e+01  1.599270000000156288e+05  3.767768119271819955e+02
1.750000000000000000e+01  1.599270000000158616e+05  3.729442494753020014e+02
1.762500000000000000e+01  1.599270000000101572e+05  3.861180466934393394e+02
1.775000000000000000e+01  1.599270000000096334e+05  3.736051327077018982e+02
1.787500000000000000e+01  1.599270000000150176e+05  3.875597745498196787e+02
1.800000000000000000e+01  1.599270000000137661e+05  3.773574314981808584e+02
1.812500000000000000e+01  1.599270000000116706e+05  3.883462444906046471e+02
1.825000000000000000e+01  1.599270000000143482e+05  3.800768097600522992e+02
1.837500000000000000e+01  1.599270000000104774e+05  3.900310517265391468e+02
1.850000000000000000e+01  1.599270000000108848e+05  3.841325981622637187e+02
1.862500000000000000e+01  1.599270000000195287e+05  3.871042406978714325e+02
1.875000000000000000e+01  1.599270000000159489e+05  3.675404914430491203e+02
1.887500000000000000e+01  1.599270000000068976e+05  3.875062995892764661e+02
1.900000000000000000e+01  1.599270000000033469e+05  3.745897198318832579e+02
1.912500000000000000e+01  1.599270000000134751e+05  3.882455287268668940e+02
1.925000000000000000e+01  1.599270000000079453e+05  3.836812993349100225e+02
1.937500000000000000e+01  1.599270000000074797e+05  3.868436857067590608e+02
1.950000000000000000e+01  1.599270000000159198e+05  3.806609817478763489e+02
1.962500000000000000e+01  1.599270000000135915e+05  3.888130765922754222e+02
1.975000000000000000e+01  1.599270000000069558e+05  3.888843389333321738e+02
1.987500000000000000e+01  1.599270000000120490e+05  3.875688788757464636e+02
2.000000000000000000e+01  1.599270000000160944e+05  3.893277339172528855e+02
2.012500000000000000e+01  1.599270000000204600e+05  3.744562125018829875e+02
2.025000000000000000e+01  1.599270000000104774e+05  3.867859817020023456e+02
2.037500000000000000e+01  1.599270000000009313e+05  3.752263519133259138e+02
2.050000000000000000e+01  1.599270000000076252e+05  3.891905226501676793e+02
2.062500000000000000e+01  1.599270000000136497e+05  3.884756877057111524e+02
2.075000000000000000e+01  1.599270000000140572e+05  3.861383045460536323e+02
2.087500000000000000e+01  1.599270000000165310e+05  3.842379087617345590e+02
2.100000000000000000e+01  1.599270000000113214e+05  3.911095847836708117e+02
2.112500000000000000e+01  1.599270000000056461e+05  3.868052135009877475e+02
2.125000000000000000e+01  1.599269999999931606e+05  3.912160580332891300e+02
2.137500000000000000e+01  1.599270000000050350e+05  3.902667267213552122e+02
2.150000000000000000e+01  1.599270000000192085e+05  3.825380860876208544e+02
2.162500000000000000e+01  1.599270000000160071e+05  3.744480013280517596e+02
2.175000000000000000e+01  1.599270000000035216e+05  3.930193356447520614e+02
2.187500000000000000e+01  1.599270000000161817e+05  3.802905862308082874e+02
2.200000000000000000e+01  1.599270000000108557e+05  3.951381245599971521e+02
2.212500000000000000e+01  1.599270000000071886e+05  3.861754522252246602e+02
2.225000000000000000e+01  1.599270000000195869e+05  3.922431172619816948e+02
2.237500000000000000e+01  1.599270000000048603e+05  3.875939190807848718e+02
2.250000000000000000e+01  1.599270000000099826e+05  3.968961805241092975e+02
2.262500000000000000e+01  1.599270000000116706e+05  3.872301753012834524e+02
2.275000000000000000e+01  1.599270000000126020e+05  3.965007658297460580e+02
2.287500000000000000e+01  1.599270000000177533e+05  3.802690848520134068e+02
2.300000000000000000e+01  1.599270000000152795e+05  3.892689113206380966e+02
2.312500000000000000e+01  1.599270000000134460e+05  3.819408859971793504e+02
2.325000000000000000e+01  1.599270000000078871e+05  3.849786315442985369e+02
2.337500000000000000e+01  1.599270000000053551e+05  3.886190279983542837e+02
2.350000000000000000e+01  1.599270000000023865e+05  3.902597548299511345e+02
2.362500000000000000e+01  1.599270000000316068e+05  3.925821464541307932e+02
2.375000000000000000e+01  1.599270000000014552e+05  3.881917694449298324e+02
2.387500000000000000e+01  1.599270000000195287e+05  4.021911479225636299e+02
2.400000000000000000e+01  1.599270000000116997e+05  3.845832692612148662e+02
2.412500000000000000e+01  1.599270000000176951e+05  3.964800513799983150e+02
2.425000000000000000e+01  1.599270000000134460e+05  3.904341642917148079e+02
2.437500000000000000e+01  1.599270000000155705e+05  3.820095252402618371e+02
2.450000000000000000e+01  1.599270000000013970e+05  3.849317926835856838e+02
2.462500000000000000e+01  1.599270000000177824e+05  3.931879660794093638e+02
2.475000000000000000e+01  1.599270000000127184e+05  3.947298996508958453e+02
2.487500000000000000e+01  1.599270000000039290e+05  3.891824559163006256e+02
2.500000000000000000e+01  1.599270000000007276e+05  3.921806051088584013e+02
2.512500000000000000e+01  1.599270000000105647e+05  3.943744882573281529e+02
2.525000000000000000e+01  1.599270000000058499e+05  3.941803785979103623e+02
2.537500000000000000e+01  1.599270000000063446e+05  3.895575126711327130e+02
2.550000000000000000e+01  1.599269999999961583e+05  3.960336530433486359e+02
2.562500000000000000e+01  1.599270000000168511e+05  3.992651493747963514e+02
2.575000000000000000e+01  1.599270000000130676e+05  3.842700734673286433e+02
2.587500000000000000e+01  1.599270000000206055e+05  3.807548289539099073e+02
2.600000000000000000e+01  1.599270000000077416e+05  3.967666862807041070e+02
2.612500000000000000e+01  1.599270000000152504e+05  3.895586683658190736e+02
2.625000000000000000e+01  1.599270000000064319e+05  3.981253310665985055e+02
2.637500000000000000e+01  1.599270000000136206e+05  3.942402584041035993e+02
2.650000000000000000e+01  1.599270000000141445e+05  3.900890601228006744e+02
2.662500000000000000e+01  1.599270000000072760e+05  4.008119960009302645e+02
2.675000000000000000e+01  1.599270000000161526e+05  3.968021013557568040e+02
2.687500000000000000e+01  1.599270000000152504e+05  3.970466017525775442e+02
2.700000000000000000e+01  1.599270000000171713e+05  3.935115835043139896e+02
2.712500000000000000e+01  1.599270000000123400e+05  3.865407451830513992e+02
2.725000000000000000e+01  1.599270000000005239e+05  3.893773501651091919e+02
2.737500000000000000e+01  1.599270000000127184e+05  3.846322057885577692e+02
2.750000000000000000e+01  1.599270000000009604e+05  4.062778986318022589e+02
2.762500000000000000e+01  1.599270000000095170e+05  3.910908731969757923e+02
2.775000000000000000e+01  1.599270000000062282e+05  3.944644510046255164e+02
2.787500000000000000e+01  1.599270000000144355e+05  3.993472957838952766e+02
2.800000000000000000e+01  1.599270000000000000e+05  3.999087395894218275e+02
2.812500000000000000e+01  1.599270000000162690e+05  4.001239622711877928e+02
2.825000000000000000e+01  1.599270000000297150e+05  4.001790750747908305e+02
2.837500000000000000e+01  1.599270000000094005e+05  3.953529804859981596e+02
2.850000000000000000e+01  1.599270000000107393e+05  3.906484262489302637e+02
2.862500000000000000e+01  1.599270000000228174e+05  3.919802959287450221e+02
2.875000000000000000e+01  1.599270000000200816e+05  3.929137552816967514e+02
2.887500000000000000e+01  1.599270000000093423e+05  3.981771537545978958e+02
2.900000000000000000e+01  1.599270000000033469e+05  4.005416328986528356e+02
2.912500000000000000e+01  1.599270000000023574e+05  3.600945822332515149e+02
2.925000000000000000e+01  1.599270000000127766e+05  4.096371984350926141e+02
2.937500000000000000e+01  1.599270000000082655e+05  4.134482520209103313e+02
2.950000000000000000e+01  1.599270000000189175e+05  4.019535292629853984e+02
2.962500000000000000e+01  1.599269999999977299e+05  4.065048882342146612e+02
2.975000000000000000e+01  1.599270000000075379e+05  3.990053531264761659e+02
2.987500000000000000e+01  1.599270000000107393e+05  3.947924360739149279e+02
3.000000000000000000e+01  1.599270000000092841e+05  3.996277218937243561e+02
3.012500000000000000e+01  1.599270000000047439e+05  3.928675165341871320e+02
3.025000000000000000e+01  1.599270000000331784e+05  3.986952571819809350e+02
3.037500000000000000e+01  1.599270000000074797e+05  3.988006086684318916e+02
3.050000000000000000e+01  1.599270000000021537e+05  4.027021178491112892e+02
3.062500000000000000e+01  1.599270000000170548e+05  4.001427481687205159e+02
3.075000000000000000e+01  1.599270000000062864e+05  4.017759083675356351e+02
3.087500000000000000e+01  1.599270000000098371e+05  4.006207988993028266e+02
3.100000000000000000e+01  1.599270000000116706e+05  4.060408189594686519e+02
3.112500000000000000e+01  1.599270000000160071e+05  3.994070704837732251e+02
3.125000000000000000e+01  1.599270000000147847e+05  3.943145472764962278e+02
3.137500000000000000e+01  1.599270000000140572e+05  3.885295650467469954e+02
3.150000000000000000e+01  1.599270000000181608e+05  3.987411058014848209e+02
3.162500000000000000e+01  1.599270000000324508e+05  4.012419294866692212e+02
3.175000000000000000e+01  1.599270000000049185e+05  3.933532443060841501e+02
3.187500000000000000e+01  1.599270000000077998e+05  4.039964903843082880e+02
3.200000000000000000e+01  1.599270000000217697e+05  4.025681345463433445e+02
3.212500000000000000e+01  1.599270000000086147e+05  3.998912367450294028e+02
3.225000000000000000e+01  1.599270000000122818e+05  4.080460881923524994e+02
3.237500000000000000e+01  1.599270000000198197e+05  4.023374864786416083e+02
3.250000000000000000e+01  1.599270000000194705e+05  4.023005686509963539e+02
3.262500000000000000e+01  1.599270000000092841e+05  3.937082853643391331e+02
3.275000000000000000e+01  1.599270000000184518e+05  3.985726588750691235e+02
3.287500000000000000e+01  1.599270000000123691e+05  3.972498806915090768e+02
3.300000000000000000e+01  1.599270000000207510e+05  4.011838518567612937e+02
3.312500000000000000e+01  1.599270000000171713e+05  4.016605809767314668e+02
3.325000000000000000e+01  1.599270000000245054e+05  4.019141786160420224e+02
3.337500000000000000e+01  1.599270000000243017e+05  4.022967501453903196e+02
3.350000000000000000e+01  1.599270000000293949e+05  4.080460881923960983e+02
3.362500000000000000e+01  1.599269999999983993e+05  4.035615056163117060e+02
3.375000000000000000e+01  1.599270000000138534e+05  4.077528786833885874e+02
3.387500000000000000e+01  1.599270000000199070e+05  4.042597072065912016e+02
3.400000000000000000e+01  1.599269999999962165e+05  4.005969184952930959e+02
3.412500000000000000e+01  1.599270000000126602e+05  3.892124205994143722e+02
3.425000000000000000e+01  1.599269999999994761e+05  4.065350947046237593e+02
3.437500000000000000e+01  1.599270000000023283e+05  4.019535292629436753e+02
3.450000000000000000e+01  1.599269999999946158e+05  4.004600028617471139e+02
3.462500000000000000e+01  1.599270000000178698e+05  4.074060903294089258e+02
3.475000000000000000e+01  1.599270000000013970e+05  4.047682402953646488e+02
3.487500000000000000e+01  1.599270000000144646e+05  4.033766129962337459e+02
3.500000000000000000e+01  1.599270000000057335e+05  4.125613480759243430e+02
3.512500000000000000e+01  1.599269999999992142e+05  4.093043498698318103e+02
3.525000000000000000e+01  1.599270000000107975e+05  4.073413311264614549e+02
3.537500000000000000e+01  1.599270000000268046e+05  4.035191119354802822e+02
3.550000000000000000e+01  1.599270000000201399e+05  3.940798419179367897e+02
3.562500000000000000e+01  1.599270000000038999e+05  3.930027218564657119e+02
3.575000000000000000e+01  1.599270000000112050e+05  4.104958715967538865e+02
3.587500000000000000e+01  1.599269999999979627e+05  4.031010303964904438e+02
3.600000000000000000e+01  1.599270000000301807e+05  4.070127251683366012e+02
3.612500000000000000e+01  1.599270000000038999e+05  4.053581018490996257e+02
3.625000000000000000e+01  1.599270000000451691e+05  4.129311148454025329e+02
3.637500000000000000e+01  1.599270000000129221e+05  4.079611117836353174e+02
3.650000000000000000e+01  1.599270000000029395e+05  4.122336512328422486e+02
3.662500000000000000e+01  1.599270000000476139e+05  4.133391469191440137e+02
3.675000000000000000e+01  1.599270000000176369e+05  4.111641528142852735e+02
3.687500000000000000e+01  1.599270000000102445e+05  3.903306531419059979e+02
3.700000000000000000e+01  1.599270000000222353e+05  4.018570772682988377e+02
3.712500000000000000e+01  1.599269999999792781e+05  4.043075026540717545e+02
3.725000000000000000e+01  1.599270000000203727e+05  4.072383087230356864e+02
3.737500000000000000e+01  1.599270000000273867e+05  4.100395774342297273e+02
3.750000000000000000e+01  1.599270000000204309e+05  4.061914015927469563e+02
3.762500000000000000e+01  1.599269999999815191e+05  4.130963875632388067e+02
3.775000000000000000e+01  1.599270000000260188e+05  4.093150742589126025e+02
3.787500000000000000e+01  1.599270000000340806e+05  4.193530998325682049e+02
3.800000000000000000e+01  1.599270000000154250e+05  4.077926438047255715e+02
3.812500000000000000e+01  1.599270000000119617e+05  4.133087785928000812e+02
3.825000000000000000e+01  1.599270000000328582e+05  3.863884138490343503e+02
3.837500000000000000e+01  1.599270000000198197e+05  4.059466263423292958e+02
3.850000000000000000e+01  1.599270000000163272e+05  4.085277376435749943e+02
3.862500000000000000e+01  1.599269999999879219e+05  4.059675523699228847e+02
3.875000000000000000e+01  1.599270000000120781e+05  4.139936893692041053e+02
3.887500000000000000e+01  1.599270000000059663e+05  4.082773865085736134e+02
3.900000000000000000e+01  1.599269999999912689e+05  4.115737785907967918e+02
3.912500000000000000e+01  1.599270000000130676e+05  4.125105656355329415e+02
3.925000000000000000e+01  1.599269999999991269e+05  4.096990257991459998e+02
3.937500000000000000e+01  1.599270000000113505e+05  4.194511678128180279e+02
3.950000000000000000e+01  1.599270000000073633e+05  4.149066376071546642e+02
3.962500000000000000e+01  1.599270000000175787e+05  3.931962844621129989e+02
3.975000000000000000e+01  1.599270000000024447e+05  4.015263687111948911e+02
3.987500000000000000e+01  1.599269999999795400e+05  4.063434634919249220e+02
4.000000000000000000e+01  1.599269999999997672e+05  4.082800473968504207e+02
4.012500000000000000e+01  1.599270000000405998e+05  4.093794383005087525e+02
4.025000000000000000e+01  1.599270000000267173e+05  4.131473866921519402e+02
4.037500000000000000e+01  1.599270000000029686e+05  4.118903402644877474e+02
4.050000000000000000e+01  1.599270000000130385e+05  4.086771020852341394e+02
4.062500000000000000e+01  1.599269999999903666e+05  4.194064518188115471e+02
4.075000000000000000e+01  1.599270000000312575e+05  4.095807718025300801e+02
4.087500000000000000e+01  1.599269999999918218e+05  4.172625564159443456e+02
4.100000000000000000e+01  1.599270000000038708e+05  3.988055684431773784e+02
4.112500000000000000e+01  1.599269999999955180e+05  4.065495436579689681e+02
4.125000000000000000e+01  1.599270000000260188e+05  4.047954678616436013e+02
4.137500000000000000e+01  1.599269999999997963e+05  4.084997500386681395e+02
4.150000000000000000e+01  1.599270000000133587e+05  4.120981392332849964e+02
4.162500000000000000e+01  1.599270000000130676e+05  4.125105656355329415e+02
4.175000000000000000e+01  1.599270000000042492e+05  4.149331697806410943e+02
4.187500000000000000e+01  1.599270000000189175e+05  4.123007723051362063e+02
4.200000000000000000e+01  1.599269999999963038e+05  4.160000558290589652e+02
4.212500000000000000e+01  1.599270000000351283e+05  4.130481625225132234e+02
4.225000000000000000e+01  1.599270000000043656e+05  4.135975482523306823e+02
4.237500000000000000e+01  1.599270000000243599e+05  3.976413972220281607e+02
4.250000000000000000e+01  1.599270000000097789e+05  4.031048718502881343e+02
4.262500000000000000e+01  1.599270000000266009e+05  4.044988541099902477e+02
4.275000000000000000e+01  1.599270000000347209e+05  4.066967480288597017e+02
4.287500000000000000e+01  1.599270000000215077e+05  4.045117930633494439e+02
4.300000000000000000e+01  1.599270000000190048e+05  4.090191226560561972e+02
4.312500000000000000e+01  1.599270000000307045e+05  4.078191603498938775e+02
4.325000000000000000e+01  1.599270000000093714e+05  4.082334893615752094e+02
4.337500000000000000e+01  1.599269999999969732e+05  4.099089098519223171e+02
4.350000000000000000e+01  1.599270000000160944e+05  4.044315915615675294e+02
4.362500000000000000e+01  1.599269999999981374e+05  4.126808293704719404e+02
4.375000000000000000e+01  1.599269999999988067e+05  3.808444260734972886e+02
4.387500000000000000e+01  1.599270000000153668e+05  3.740688237591124903e+02
4.400000000000000000e+01  1.599270000000063446e+05  4.237104972433882608e+02
4.412500000000000000e+01  1.599270000000087311e+05  4.005114867646874472e+02
4.425000000000000000e+01  1.599270000000221771e+05  4.112960248728894044e+02
4.437500000000000000e+01  1.599270000000088476e+05  4.038959844479359163e+02
4.450000000000000000e+01  1.599269999999828287e+05  3.998899866297299468e+02
4.462500000000000000e+01  1.599269999999818683e+05  4.021771586872629882e+02
4.475000000000000000e+01  1.599269999999966822e+05  4.035319570944900534e+02
4.487500000000000000e+01  1.599270000000546570e+05  4.022114985072979039e+02
4.500000000000000000e+01  1.599270000000173459e+05  4.022891134603211185e+02
4.512500000000000000e+01  1.599270000000181317e+05  3.894085142500886718e+02
4.525000000000000000e+01  1.599270000000024447e+05  3.946541741668692111e+02
4.537500000000000000e+01  1.599270000000147847e+05  3.995129873983474340e+02
4.550000000000000000e+01  1.599270000000038126e+05  3.991706193069202300e+02
4.562500000000000000e+01  1.599270000000156579e+05  4.083359380717767522e+02
4.575000000000000000e+01  1.599270000000137661e+05  4.035692149939757769e+02
4.587500000000000000e+01  1.599270000000193832e+05  4.071709901692037761e+02
4.600000000000000000e+01  1.599269999999848660e+05  4.095096000331500363e+02
4.612500000000000000e+01  1.599270000000056752e+05  4.149848523080646032e+02
4.625000000000000000e+01  1.599270000000414730e+05  4.055679020673678110e+02
4.637500000000000000e+01  1.599270000000425207e+05  4.192594226519519793e+02
4.650000000000000000e+01  1.599269999999952270e+05  4.090405274638941364e+02
4.662500000000000000e+01  1.599269999999876891e+05  3.983883552449331091e+02
4.675000000000000000e+01  1.599270000000285800e+05  4.138134841754014701e+02
4.687500000000000000e+01  1.599269999999961874e+05  4.082760560839117829e+02
4.700000000000000000e+01  1.599270000000116997e+05  4.182974714394619014e+02
4.712500000000000000e+01  1.599270000000230502e+05  4.151749866025087954e+02
4.725000000000000000e+01  1.599270000000119908e+05  4.194208747704707321e+02
4.737500000000000000e+01  1.599270000000226137e+05  4.151945740900496844e+02
4.750000000000000000e+01  1.599270000000122236e+05  4.275771473657105730e+02
4.762500000000000000e+01  1.599270000000227883e+05  4.206697533072485840e+02
4.775000000000000000e+01  1.599270000000225264e+05  4.289437369357640364e+02
4.787500000000000000e+01  1.599270000000099826e+05  4.153107568756606724e+02
4.800000000000000000e+01  1.599269999999995925e+05  4.022331243885249137e+02
4.812500000000000000e+01  1.599269999999906868e+05  4.110364802181584309e+02
4.825000000000000000e+01  1.599270000000042783e+05  4.158073808355259757e+02
4.837500000000000000e+01  1.599270000000258151e+05  4.205897350581070668e+02
4.850000000000000000e+01  1.599270000000174623e+05  4.154901216711724032e+02
4.862500000000000000e+01  1.599270000000290747e+05  4.208022474917527234e+02
4.875000000000000000e+01  1.599270000000023283e+05  4.242722412412903736e+02
4.887500000000000000e+01  1.599270000000240107e+05  4.275909015026841757e+02
4.900000000000000000e+01  1.599270000000217406e+05  4.251648793919867444e+02
4.912500000000000000e+01  1.599269999999906286e+05  4.243872491117354002e+02
4.925000000000000000e+01  1.599270000000362925e+05  4.266874841814116621e+02
4.937500000000000000e+01  1.599269999999896972e+05  4.001577787919491129e+02
4.950000000000000000e+01  1.599270000000140863e+05  4.131529012428932219e+02
4.962500000000000000e+01  1.599269999999937427e+05  4.188321873419061490e+02
4.975000000000000000e+01  1.599269999999911815e+05  4.135132036564833697e+02
4.987500000000000000e+01  1.599270000000188593e+05  4.270706982449982547e+02
5.000000000000000000e+01  1.599270000000133878e+05  4.240603937869270794e+02
5.012500000000000000e+01  1.599270000000275904e+05  4.237030620432452110e+02
5.025000000000000000e+01  1.599270000000281143e+05  4.275847883890794492e+02
5.037500000000000000e+01  1.599270000000222353e+05  4.258350486137489952e+02
5.050000000000000000e+01  1.599270000000140572e+05  4.264113591408919319e+02
5.062500000000000000e+01  1.599270000000100699e+05  4.258425966188117400e+02
5.075000000000000000e+01  1.599270000000243890e+05  4.042739148933800379e+02
5.087500000000000000e+01  1.599270000000160071e+05  4.158509553907819054e+02
5.100000000000000000e+01  1.599270000000181608e+05  4.106298085796271380e+02
5.112500000000000000e+01  1.599269999999810243e+05  4.258954438951328711e+02
5.125000000000000000e+01  1.599269999999996217e+05  4.217537559411488246e+02
5.137500000000000000e+01  1.599270000000083237e+05  4.332172369758534387e+02
5.150000000000000000e+01  1.599269999999888241e+05  4.228077592365766577e+02
5.162500000000000000e+01  1.599270000000233122e+05  4.294212779439639576e+02
5.175000000000000000e+01  1.599270000000129803e+05  4.230902626728543510e+02
5.187500000000000000e+01  1.599270000000067521e+05  4.282188898395822321e+02
5.200000000000000000e+01  1.599270000000116706e+05  4.263977185121408411e+02
5.212500000000000000e+01  1.599269999999959255e+05  4.057701917263249243e+02
5.225000000000000000e+01  1.599270000000432483e+05  4.167111868501626759e+02
5.237500000000000000e+01  1.599270000000039581e+05  4.194944549760427321e+02
5.250000000000000000e+01  1.599269999999901920e+05  4.246549669040498998e+02
5.262500000000000000e+01  1.599270000000321888e+05  4.208372118806949516e+02
5.275000000000000000e+01  1.599270000000032887e+05  4.294754689670412517e+02
5.287500000000000000e+01  1.599270000000048603e+05  4.173080107820294415e+02
5.300000000000000000e+01  1.599270000000233704e+05  4.312424355727367242e+02
5.312500000000000000e+01  1.599270000000094005e+05  4.223342480302920308e+02
5.325000000000000000e+01  1.599269999999865540e+05  4.335338819721239929e+02
5.337500000000000000e+01  1.599270000000252621e+05  4.239992855808934564e+02
5.350000000000000000e+01  1.599269999999957508e+05  4.107503285491328597e+02
5.362500000000000000e+01  1.599270000000502041e+05  4.105783829228389550e+02
5.375000000000000000e+01  1.599270000000227883e+05  4.200033608834233405e+02
5.387500000000000000e+01  1.599270000000079744e+05  4.232013482797686947e+02
5.400000000000000000e+01  1.599270000000043074e+05  4.145830757623973000e+02
5.412500000000000000e+01  1.599270000000180444e+05  4.255922171806914776e+02
5.425000000000000000e+01  1.599270000000377477e+05  4.206974065908052580e+02
5.437500000000000000e+01  1.599270000000097498e+05  4.286524328082582542e+02
5.450000000000000000e+01  1.599270000000072469e+05  4.180873007893562203e+02
5.462500000000000000e+01  1.599269999999699357e+05  4.327506969095260274e+02
5.475000000000000000e+01  1.599270000000217988e+05  4.215690892636656599e+02
5.487500000000000000e+01  1.599270000000307045e+05  4.071551553606227003e+02
5.500000000000000000e+01  1.599270000000158907e+05  4.131846141956850715e+02
5.512500000000000000e+01  1.599270000000341097e+05  4.181487464957423299e+02
5.525000000000000000e+01  1.599269999999939464e+05  4.177548212070392424e+02
5.537500000000000000e+01  1.599269999999780848e+05  4.162522031366922306e+02
5.550000000000000000e+01  1.599270000000118162e+05  4.232057935242293638e+02
5.562500000000000000e+01  1.599270000000384753e+05  4.148117220421336810e+02
5.575000000000000000e+01  1.599269999999989232e+05  4.266221974529064482e+02
5.587500000000000000e+01  1.599270000000216241e+05  4.181344543789859927e+02
5.600000000000000000e+01  1.599269999999992142e+05  4.267968686366808129e+02
5.612500000000000000e+01  1.599270000000101572e+05  4.144299271314238240e+02
5.625000000000000000e+01  1.599270000000345754e+05  4.042480838497268110e+02
5.637500000000000000e+01  1.599269999999994179e+05  3.994157898702660532e+02
5.650000000000000000e+01  1.599269999999753782e+05  4.112239553463385846e+02
5.662500000000000000e+01  1.599270000000093132e+05  4.141796859599929235e+02
5.675000000000000000e+01  1.599270000000060245e+05  4.162536130690821778e+02
5.687500000000000000e+01  1.599270000000252330e+05  4.180258821629166732e+02
5.700000000000000000e+01  1.599270000000276486e+05  4.164299675152840905e+02
5.712500000000000000e+01  1.599270000000390864e+05  4.317339964353447499e+02
5.725000000000000000e+01  1.599270000000102154e+05  4.240246199236069060e+02
5.737500000000000000e+01  1.599269999999969150e+05  4.288141951345985490e+02
5.750000000000000000e+01  1.599270000000425498e+05  4.241797054237685529e+02
5.762500000000000000e+01  1.599269999999965949e+05  4.221399942210508698e+02
5.775000000000000000e+01  1.599269999999874854e+05  4.074576554487253475e+02
5.787500000000000000e+01  1.599270000000334694e+05  4.227427600699360823e+02
5.800000000000000000e+01  1.599270000000117288e+05  4.188939621071347688e+02
5.812500000000000000e+01  1.599270000000070431e+05  4.297467321594602367e+02
5.825000000000000000e+01  1.599269999999925494e+05  4.299858694349825896e+02
5.837500000000000000e+01  1.599270000000073051e+05  4.350631801941422623e+02
5.850000000000000000e+01  1.599270000000038417e+05  4.187819257272943219e+02
5.862500000000000000e+01  1.599270000000315777e+05  5.465138985228070396e+02
5.875000000000000000e+01  1.599269999999839929e+05  4.163904446383597815e+02
5.887500000000000000e+01  1.599270000000021537e+05  4.093941926701884313e+02
5.900000000000000000e+01  1.599270000000135915e+05  4.138661351982959786e+02
5.912500000000000000e+01  1.599269999999943248e+05  4.068217342946825283e+02
5.925000000000000000e+01  1.599269999999825377e+05  4.197703645467053093e+02
5.937500000000000000e+01  1.599269999999804131e+05  4.258622233105438113e+02
5.950000000000000000e+01  1.599270000000424625e+05  4.243723077402376020e+02
5.962500000000000000e+01  1.599270000000064028e+05  4.340381249015989056e+02
5.975000000000000000e+01  1.599269999999656284e+05  4.320426681239466689e+02
5.987500000000000000e+01  1.599270000000383297e+05  4.366673632992743137e+02
6.000000000000000000e+01  1.599269999999985448e+05  4.286724505957553788e+02
6.012500000000000000e+01  1.599270000000242144e+05  4.422904733434734226e+02
6.025000000000000000e+01  1.599270000000042783e+05  4.296211121752642725e+02
6.037500000000000000e+01  1.599270000000255532e+05  4.415902043329551248e+02
6.050000000000000000e+01  1.599270000000105938e+05  3.929078263247303084e+02
6.062500000000000000e+01  1.599270000000073051e+05  4.229245375660401578e+02
6.075000000000000000e+01  1.599270000000204309e+05  4.302082833085861466e+02
6.087500000000000000e+01  1.599270000000022410e+05  4.255846824813222042e+02
6.100000000000000000e+01  1.599270000000154832e+05  4.328045734580989006e+02
6.112500000000000000e+01  1.599269999999881838e+05  4.290363387048926711e+02
6.125000000000000000e+01  1.599269999999981374e+05  4.442125333123369728e+02
6.137500000000000000e+01  1.599270000000239816e+05  4.287463867282484671e+02
6.150000000000000000e+01  1.599270000000081782e+05  4.389608535215055554e+02
6.162500000000000000e+01  1.599270000000497093e+05  4.314197063141990043e+02
6.175000000000000000e+01  1.599269999999949650e+05  4.371418007395823224e+02
6.187500000000000000e+01  1.599270000000359432e+05  4.011371555376942410e+02
6.200000000000000000e+01  1.599270000000111468e+05  4.239188418974052865e+02
6.212500000000000000e+01  1.599269999999976717e+05  4.296133614646695378e+02
6.225000000000000000e+01  1.599270000000295986e+05  4.280915371251690544e+02
6.237500000000000000e+01  1.599270000000045984e+05  4.391345739324921169e+02
6.250000000000000000e+01  1.599270000000286964e+05  4.281344867857335430e+02
6.262500000000000000e+01  1.599269999999870779e+05  4.343021164868130199e+02
6.275000000000000000e+01  1.599270000000034343e+05  4.298538287349249458e+02
6.287500000000000000e+01  1.599270000000293949e+05  4.418243816749056805e+02
6.300000000000000000e+01  1.599270000000180444e+05  4.326825877269417902e+02
6.312500000000000000e+01  1.599270000000253785e+05  4.374360424625211294e+02
6.325000000000000000e+01  1.599270000000087020e+05  4.052513721465163599e+02
6.337500000000000000e+01  1.599270000000288710e+05  4.237045490519752775e+02
6.350000000000000000e+01  1.599270000000141154e+05  4.266616695668972170e+02
6.362500000000000000e+01  1.599270000000323344e+05  4.318614795048450219e+02
6.375000000000000000e+01  1.599270000000011350e+05  4.332315426269205432e+02
6.387500000000000000e+01  1.599270000000305008e+05  4.307681754195196504e+02
6.400000000000000000e+01  1.599270000000150176e+05  4.379409038757822259e+02
6.412500000000000000e+01  1.599269999999730499e+05  4.324705465827188391e+02
6.425000000000000000e+01  1.599270000000092841e+05  4.415464427016432296e+02
6.437500000000000000e+01  1.599270000000263681e+05  4.254506317565587210e+02
6.450000000000000000e+01  1.599270000000105065e+05  4.496982147447719171e+02
6.462500000000000000e+01  1.599269999999888532e+05  4.097743316935697067e+02
6.475000000000000000e+01  1.599270000000170839e+05  4.206944954619870600e+02
6.487500000000000000e+01  1.599270000000093714e+05  4.262538138886667980e+02
6.500000000000000000e+01  1.599270000000043074e+05  4.302005007759698287e+02
6.512500000000000000e+01  1.599269999999979045e+05  4.327269342395530316e+02
6.525000000000000000e+01  1.599269999999810243e+05  4.281007395355802601e+02
6.537500000000000000e+01  1.599270000000081491e+05  4.344879991985627044e+02
6.550000000000000000e+01  1.599269999999954307e+05  4.377997602032364171e+02
6.562500000000000000e+01  1.599270000000066357e+05  4.364429116697497761e+02
6.575000000000000000e+01  1.599270000000327709e+05  4.343677891482439577e+02
6.587500000000000000e+01  1.599270000000203727e+05  4.540175577954040591e+02
6.600000000000000000e+01  1.599270000000178115e+05  4.114961142909416481e+02
6.612500000000000000e+01  1.599270000000297441e+05  4.178161204163292837e+02
6.625000000000000000e+01  1.599270000000189175e+05  4.273221722811985046e+02
6.637500000000000000e+01  1.599270000000166765e+05  4.334096871445190118e+02
6.650000000000000000e+01  1.599270000000385917e+05  4.318236949708385168e+02
6.662500000000000000e+01  1.599270000000072177e+05  4.321483353846334126e+02
6.675000000000000000e+01  1.599270000000307627e+05  4.359480663207232283e+02
6.687500000000000000e+01  1.599269999999879510e+05  4.346596717619646597e+02
6.700000000000000000e+01  1.599270000000211003e+05  4.432236947746437181e+02
6.712500000000000000e+01  1.599270000000156288e+05  4.347961922912962791e+02
6.725000000000000000e+01  1.599270000000029686e+05  4.512655263197480053e+02
6.737500000000000000e+01  1.599269999999683350e+05  4.065193339668510362e+02
6.750000000000000000e+01  1.599270000000165601e+05  4.162959177019113213e+02
6.762500000000000000e+01  1.599270000000093423e+05  4.260042201894802361e+02
6.775000000000000000e+01  1.599270000000487198e+05  4.279489756056030956e+02
6.787500000000000000e+01  1.599269999999852153e+05  4.341276680712807661e+02
6.800000000000000000e+01  1.599269999999940046e+05  4.316019109443345769e+02
6.812500000000000000e+01  1.599269999999913562e+05  4.336996412766104072e+02
6.825000000000000000e+01  1.599270000000189175e+05  4.382992991796693900e+02
6.837500000000000000e+01  1.599270000000417058e+05  4.526334546463839956e+02
6.850000000000000000e+01  1.599270000000145519e+05  4.307494250364051709e+02
6.862500000000000000e+01  1.599270000000153959e+05  4.418075219454993317e+02
6.875000000000000000e+01  1.599270000000297441e+05  4.178161204163292837e+02
6.887500000000000000e+01  1.599269999999988067e+05  4.153583779919182462e+02
6.900000000000000000e+01  1.599269999999925494e+05  4.246684409562831206e+02
6.912500000000000000e+01  1.599270000000105938e+05  4.267011526390313065e+02
6.925000000000000000e+01  1.599270000000358268e+05  4.279229313666389203e+02
6.937500000000000000e+01  1.599270000000396394e+05  4.290301633878170833e+02
6.950000000000000000e+01  1.599270000000086147e+05  4.393532582124634018e+02
6.962500000000000000e+01  1.599270000000209839e+05  4.398564763011557375e+02
6.975000000000000000e+01  1.599270000000495929e+05  4.471545536971800630e+02
6.987500000000000000e+01  1.599270000000141445e+05  4.283156310657632275e+02
7.000000000000000000e+01  1.599269999999916181e+05  4.507884197882814874e+02
7.012500000000000000e+01  1.599270000000020082e+05  4.138231815381203660e+02
7.025000000000000000e+01  1.599270000000469154e+05  4.115288096897762102e+02
7.037500000000000000e+01  1.599270000000582950e+05  4.202207877039418804e+02
7.050000000000000000e+01  1.599270000000603904e+05  4.272611680878335392e+02
7.062500000000000000e+01  1.599270000000401051e+05  4.239203311792470572e+02
7.075000000000000000e+01  1.599270000000653090e+05  4.318551813938136092e+02
7.087500000000000000e+01  1.599270000000516593e+05  4.400246002999484176e+02
7.100000000000000000e+01  1.599270000000136206e+05  4.343565746335814879e+02
7.112500000000000000e+01  1.599270000000117579e+05  4.376898939586283177e+02
7.125000000000000000e+01  1.599270000000500586e+05  4.306119970013480724e+02
7.137500000000000000e+01  1.599269999999732827e+05  4.467234636870762188e+02
7.150000000000000000e+01  1.599269999999692664e+05  4.197862712110117513e+02
7.162500000000000000e+01  1.599269999999949068e+05  3.976622942416371416e+02
7.175000000000000000e+01  1.599270000000201690e+05  4.148410272495235063e+02
7.187500000000000000e+01  1.599269999999753200e+05  4.226438416184171274e+02
7.200000000000000000e+01  1.599269999999739521e+05  4.284339594300133740e+02
7.212500000000000000e+01  1.599270000000767468e+05  4.277621752067036596e+02
7.225000000000000000e+01  1.599270000000030850e+05  4.345970759538854509e+02
7.237500000000000000e+01  1.599270000000203436e+05  4.311264651075687198e+02
7.250000000000000000e+01  1.599269999999898137e+05  4.345697990636081727e+02
7.262500000000000000e+01  1.599270000000441796e+05  4.282956632217718607e+02
7.275000000000000000e+01  1.599270000000252912e+05  4.428751675566128938e+02
7.287500000000000000e+01  1.599270000000256114e+05  4.252340087164934630e+02
7.300000000000000000e+01  1.599269999999900174e+05  3.892792898414297156e+02
7.312500000000000000e+01  1.599270000000353029e+05  3.644090377551480060e+02
7.325000000000000000e+01  1.599270000000070140e+05  3.978431295208949905e+02
7.337500000000000000e+01  1.599269999999866995e+05  5.580403357530024095e+02
7.350000000000000000e+01  1.599270000000056170e+05  4.260541038532981588e+02
7.362500000000000000e+01  1.599270000000117871e+05  4.323235668228317081e+02
7.375000000000000000e+01  1.599270000000441796e+05  4.286816905206655406e+02
7.387500000000000000e+01  1.599270000000119326e+05  4.290641309326619535e+02
7.400000000000000000e+01  1.599270000000169675e+05  4.258939336999936245e+02
7.412500000000000000e+01  1.599269999999290449e+05  4.403196989843108895e+02
7.425000000000000000e+01  1.599270000000252621e+05  4.204327410893055230e+02
7.437500000000000000e+01  1.599270000000307919e+05  3.871405335635408846e+02
7.450000000000000000e+01  1.599269999999910942e+05  4.069125860695613710e+02
7.462500000000000000e+01  1.599270000000063737e+05  4.205882806034290411e+02
7.475000000000000000e+01  1.599270000000087894e+05  4.245262794968442108e+02
7.487500000000000000e+01  1.599270000000258151e+05  4.181187347431193189e+02
7.500000000000000000e+01  1.599270000000493892e+05  4.306447803782747314e+02
7.512500000000000000e+01  1.599269999999825086e+05  4.141394117104755423e+02
7.525000000000000000e+01  1.599270000000055297e+05  4.293671074290070351e+02
7.537500000000000000e+01  1.599270000000176660e+05  4.177819035770607456e+02
7.550000000000000000e+01  1.599270000000281143e+05  4.358056038609680627e+02
7.562500000000000000e+01  1.599270000000766013e+05  4.144452343577141846e+02
7.575000000000000000e+01  1.599270000000387081e+05  3.934151286021998430e+02
7.587500000000000000e+01  1.599270000000182772e+05  4.055796396459343214e+02
7.600000000000000000e+01  1.599270000000465952e+05  4.178660350472051164e+02
7.612500000000000000e+01  1.599270000000122818e+05  4.199497808064193123e+02
7.625000000000000000e+01  1.599269999999811989e+05  4.127110594789371589e+02
7.637500000000000000e+01  1.599270000000206055e+05  4.238443978157851006e+02
7.650000000000000000e+01  1.599270000000115251e+05  4.126959435943740573e+02
7.662500000000000000e+01  1.599270000000135624e+05  4.288558207704917322e+02
7.675000000000000000e+01  1.599270000000502914e+05  4.108018188507762716e+02
7.687500000000000000e+01  1.599270000000890286e+05  4.394378374077214744e+02
7.700000000000000000e+01  1.599270000000274158e+05  4.140408588094558127e+02
7.712500000000000000e+01  1.599270000000378059e+05  4.006333692485380880e+02
7.725000000000000000e+01  1.599269999999984284e+05  3.945808941794256270e+02
7.737500000000000000e+01  1.599270000000678992e+05  4.106758373927719390e+02
7.750000000000000000e+01  1.599269999999982247e+05  4.136501168847992744e+02
7.762500000000000000e+01  1.599270000000266009e+05  4.099614312851101090e+02
7.775000000000000000e+01  1.599270000000185973e+05  4.176194883146097254e+02
7.787500000000000000e+01  1.599269999999927531e+05  4.157539855464578409e+02
7.800000000000000000e+01  1.599269999999806168e+05  4.239903451321572447e+02
7.812500000000000000e+01  1.599270000000235450e+05  4.097649161858775528e+02
7.825000000000000000e+01  1.599270000000029104e+05  4.389426661686825355e+02
7.837500000000000000e+01  1.599269999999979918e+05  4.184563819220670666e+02
7.850000000000000000e+01  1.599269999999873980e+05  3.937703374085555197e+02
7.862500000000000000e+01  1.599270000000181317e+05  3.940176434625395814e+02
7.875000000000000000e+01  1.599269999999761931e+05  4.074735255788102108e+02
7.887500000000000000e+01  1.599269999999919673e+05  4.114280238982293554e+02
7.900000000000000000e+01  1.599270000000033469e+05  4.091168094114201494e+02
7.912500000000000000e+01  1.599270000000486325e+05  4.129448799959353664e+02
7.925000000000000000e+01  1.599269999999588472e+05  4.096828942225272954e+02
7.937500000000000000e+01  1.599270000000050059e+05  4.174202898828672232e+02
7.950000000000000000e+01  1.599270000000544824e+05  4.170184934158907026e+02
7.962500000000000000e+01  1.599270000000302098e+05  4.344912061663063128e+02
7.975000000000000000e+01  1.599269999999691790e+05  4.220767724282452491e+02
7.987500000000000000e+01  1.599270000000003783e+05  3.946950364743874502e+02
8.000000000000000000e+01  1.599269999999615829e+05  3.870917673823285554e+02
8.012500000000000000e+01  1.599270000000488071e+05  4.041990185048748572e+02
8.025000000000000000e+01  1.599269999999948486e+05  4.028681874333920518e+02
8.037500000000000000e+01  1.599270000000276777e+05  4.005592212874538518e+02
8.050000000000000000e+01  1.599270000000623695e+05  4.229881411357355319e+02
8.062500000000000000e+01  1.599270000000120490e+05  4.043436834528282020e+02
8.075000000000000000e+01  1.599269999999991269e+05  4.272443965142904290e+02
8.087500000000000000e+01  1.599270000000372238e+05  4.079120090090717667e+02
8.100000000000000000e+01  1.599270000000050059e+05  4.385662002522331022e+02
8.112500000000000000e+01  1.599270000000193832e+05  4.160465066363240680e+02
8.125000000000000000e+01  1.599269999999742140e+05  3.975517003928408144e+02
8.137500000000000000e+01  1.599270000000008731e+05  3.811179261088845465e+02
8.150000000000000000e+01  1.599270000000101572e+05  3.963801802003175112e+02
8.162500000000000000e+01  1.599270000000038708e+05  4.003621126652750490e+02
8.175000000000000000e+01  1.599269999999842839e+05  3.954992344960378432e+02
8.187500000000000000e+01  1.599270000000041618e+05  4.122350207229869739e+02
8.200000000000000000e+01  1.599270000000133587e+05  4.004625138110833973e+02
8.212500000000000000e+01  1.599269999999970896e+05  4.377194021371418557e+02
8.225000000000000000e+01  1.599270000000382424e+05  4.129627767497676700e+02
8.237500000000000000e+01  1.599270000000411528e+05  4.338272778934059488e+02
8.250000000000000000e+01  1.599270000000293076e+05  4.125682120064960259e+02
8.262500000000000000e+01  1.599270000000077416e+05  4.016593141943543515e+02
8.275000000000000000e+01  1.599270000000776199e+05  3.675919442483624380e+02
8.287500000000000000e+01  1.599269999999951106e+05  3.899232249059989499e+02
8.300000000000000000e+01  1.599269999999908323e+05  4.023056601608931260e+02
8.312500000000000000e+01  1.599270000000447908e+05  3.903841430060813877e+02
8.325000000000000000e+01  1.599270000000264554e+05  4.069613287654615306e+02
8.337500000000000000e+01  1.599270000000255532e+05  4.161140992322118564e+02
8.350000000000000000e+01  1.599269999999805877e+05  4.339502346272804516e+02
8.362500000000000000e+01  1.599270000000189175e+05  4.076349772346938494e+02
8.375000000000000000e+01  1.599269999999559368e+05  4.379409038756204495e+02
8.387500000000000000e+01  1.599270000000231375e+05  4.047086181532546334e+02
8.400000000000000000e+01  1.599269999999620195e+05  4.385975354211222452e+02
8.412500000000000000e+01  1.599270000000447326e+05  3.413878504152636424e+02
8.425000000000000000e+01  1.599270000000500004e+05  3.839631745452230689e+02
8.437500000000000000e+01  1.599269999999991560e+05  3.984984118904949355e+02
8.450000000000000000e+01  1.599270000000075379e+05  3.794056027826425748e+02
8.462500000000000000e+01  1.599269999999520369e+05  4.369149865989542150e+02
8.475000000000000000e+01  1.599270000000374275e+05  4.036321914534655662e+02
8.487500000000000000e+01  1.599269999999554711e+05  4.326540864529444548e+02
8.500000000000000000e+01  1.599269999999891443e+05  4.124639172198920392e+02
8.512500000000000000e+01  1.599270000000304426e+05  4.336773164491333432e+02
8.525000000000000000e+01  1.599270000000306172e+05  4.110229050252914931e+02
8.537500000000000000e+01  1.599270000000161817e+05  4.134026659657242249e+02
8.550000000000000000e+01  1.599270000000041036e+05  3.458602688081861061e+02
8.562500000000000000e+01  1.599270000000432483e+05  3.735480567218525039e+02
8.575000000000000000e+01  1.599270000000057335e+05  3.854893906400455990e+02
8.587500000000000000e+01  1.599269999999880092e+05  3.984773827873175946e+02
8.600000000000000000e+01  1.599270000000862055e+05  4.373444369302263226e+02
8.612500000000000000e+01  1.599270000000227010e+05  4.032201665561793220e+02
8.625000000000000000e+01  1.599270000000503205e+05  4.300760376680551644e+02
8.637500000000000000e+01  1.599270000000196742e+05  4.098281470491189680e+02
8.650000000000000000e+01  1.599270000000236032e+05  4.300558226146152947e+02
8.662500000000000000e+01  1.599269999999975553e+05  4.072792441637716934e+02
8.675000000000000000e+01  1.599269999999972351e+05  4.265766663161055021e+02
8.687500000000000000e+01  1.599270000000105356e+05  3.314686266004006256e+02
8.700000000000000000e+01  1.599270000000064319e+05  3.614384083563998047e+02
8.712500000000000000e+01  1.599270000000139698e+05  4.043643625564970421e+02
8.725000000000000000e+01  1.599270000000161526e+05  4.073188708623789012e+02
8.737500000000000000e+01  1.599269999999420252e+05  4.331616173567766737e+02
8.750000000000000000e+01  1.599269999999777356e+05  4.075132090184519029e+02
8.762500000000000000e+01  1.599269999999939755e+05  4.251002889803750122e+02
8.775000000000000000e+01  1.599270000000270666e+05  4.066034124237353353e+02
8.787500000000000000e+01  1.599270000000167638e+05  3.505965713176476584e+02
8.800000000000000000e+01  1.599270000002121087e+05  1.117060358231232613e+03
8.812500000000000000e+01  1.599270000000038417e+05  3.705549890340204229e+02
8.825000000000000000e+01  1.599269999999752035e+05  3.157635685141286217e+02
8.837500000000000000e+01  1.599270000000638829e+05  3.626126987904905832e+02
8.850000000000000000e+01  1.599270000000167638e+05  4.287047929468455436e+02
8.862500000000000000e+01  1.599270000000415021e+05  4.025898180081012470e+02
8.875000000000000000e+01  1.599270000000182772e+05  4.252039483453975208e+02
8.887500000000000000e+01  1.599269999999983411e+05  4.059322415752167217e+02
8.900000000000000000e+01  1.599270000000223517e+05  4.274137275858801104e+02
8.912500000000000000e+01  1.599269999999967986e+05  4.038457596008193491e+02
8.925000000000000000e+01  1.599270000000145519e+05  4.297110510855412713e+02
8.937500000000000000e+01  1.599269999999888532e+05  4.043087946582395489e+02
8.950000000000000000e+01  1.599269999999635329e+05  4.311045352720576602e+02
8.962500000000000000e+01  1.599269999999946158e+05  2.930196492695109214e+02
8.975000000000000000e+01  1.599270000000143773e+05  4.001039268965425890e+02
8.987500000000000000e+01  1.599270000000262226e+05  4.271011563024999305e+02
9.000000000000000000e+01  1.599269999999810243e+05  3.990923097329077223e+02
9.012500000000000000e+01  1.599270000000446453e+05  4.259694631474031894e+02
9.025000000000000000e+01  1.599269999999993888e+05  4.009795182156294686e+02
9.037500000000000000e+01  1.599270000000713626e+05  4.316930998731493787e+02
9.050000000000000000e+01  1.599270000000259606e+05  4.011623947662756677e+02
9.062500000000000000e+01  1.599270000000369037e+05  4.227043655591652396e+02
9.075000000000000000e+01  1.599269999999961292e+05  4.073439737547136588e+02
9.087500000000000000e+01  1.599270000000500004e+05  3.981018941160312465e+02
9.100000000000000000e+01  1.599270000000126893e+05  3.020567542003809081e+02
9.112500000000000000e+01  1.599270000000084110e+05  4.009984248822870541e+02
9.125000000000000000e+01  1.599270000000289874e+05  4.245711571645329059e+02
9.137500000000000000e+01  1.599270000000177242e+05  3.991233794446501406e+02
9.150000000000000000e+01  1.599270000000130676e+05  4.303001491017948297e+02
9.162500000000000000e+01  1.599270000000304135e+05  3.976303354276075197e+02
9.175000000000000000e+01  1.599270000000161526e+05  4.300247280978586559e+02
9.187500000000000000e+01  1.599270000000325090e+05  3.950923017971081208e+02
9.200000000000000000e+01  1.599270000000217988e+05  4.279505077676789710e+02
9.212500000000000000e+01  1.599269999999858555e+05  4.027391463439022345e+02
9.225000000000000000e+01  1.599269999999886204e+05  3.573977339117312226e+02
9.237500000000000000e+01  1.599270000000487780e+05  3.214309513650478607e+02
9.250000000000000000e+01  1.599270000000230502e+05  3.994058249037581163e+02
9.262500000000000000e+01  1.599270000000382715e+05  4.274213598512545218e+02
9.275000000000000000e+01  1.599269999999945576e+05  4.057780283803721773e+02
9.287500000000000000e+01  1.599270000000167347e+05  4.169958116470884306e+02
9.300000000000000000e+01  1.599270000000420259e+05  4.055965957255169201e+02
9.312500000000000000e+01  1.599270000000632426e+05  4.260994678484964311e+02
9.325000000000000000e+01  1.599269999999580032e+05  3.946493676707916620e+02
9.337500000000000000e+01  1.599270000000165892e+05  4.214475761942754843e+02
9.350000000000000000e+01  1.599270000000289292e+05  3.745753352579059765e+02
9.362500000000000000e+01  1.599269999999766587e+05  3.668658426882403205e+02
9.375000000000000000e+01  1.599270000000596629e+05  3.325237799976626434e+02
9.387500000000000000e+01  1.599269999999996217e+05  3.981709833257680771e+02
9.400000000000000000e+01  1.599270000000089640e+05  4.214387961888476752e+02
9.412500000000000000e+01  1.599269999999955180e+05  4.053021233199901872e+02
9.425000000000000000e+01  1.599270000000590808e+05  4.159705043240495570e+02
9.437500000000000000e+01  1.599270000000141736e+05  4.029628111611670533e+02
9.450000000000000000e+01  1.599270000000215950e+05  4.161803155809328700e+02
9.462500000000000000e+01  1.599269999999992433e+05  4.057832530686741848e+02
9.475000000000000000e+01  1.599269999999692955e+05  3.963533983313548674e+02
9.487500000000000000e+01  1.599269999999990105e+05  3.742797912147297552e+02
9.500000000000000000e+01  1.599269999999823049e+05  3.688117535697069229e+02
9.512500000000000000e+01  1.599269999999788706e+05  3.420031981308002287e+02
9.525000000000000000e+01  1.599270000000306754e+05  3.993784250910023275e+02
9.537500000000000000e+01  1.599270000000157743e+05  4.227117483064269550e+02
9.550000000000000000e+01  1.599270000000310538e+05  3.965775594638641905e+02
9.562500000000000000e+01  1.599270000000562286e+05  4.150421446987062950e+02
9.575000000000000000e+01  1.599270000000044238e+05  4.011750161671921546e+02
9.587500000000000000e+01  1.599270000000116706e+05  4.177035216832009041e+02
9.600000000000000000e+01  1.599270000000265427e+05  3.878947806064936685e+02
9.612500000000000000e+01  1.599269999999885331e+05  3.902074775516877025e+02
9.625000000000000000e+01  1.599270000000265427e+05  3.797627086010369339e+02
9.637500000000000000e+01  1.599269999999847496e+05  3.731746515237580866e+02
9.650000000000000000e+01  1.599270000000232831e+05  3.490840895761180036e+02
9.662500000000000000e+01  1.599270000000486325e+05  3.803551122572474696e+02
9.675000000000000000e+01  1.599270000000484579e+05  4.178988458324971020e+02
9.687500000000000000e+01  1.599270000000066939e+05  3.957231601277147206e+02
9.700000000000000000e+01  1.599270000000263099e+05  4.207469050279079852e+02
9.712500000000000000e+01  1.599270000000358850e+05  3.975922407562635499e+02
9.725000000000000000e+01  1.599269999999814318e+05  4.045324979715415452e+02
9.737500000000000000e+01  1.599270000000027649e+05  3.802303915589022836e+02
9.750000000000000000e+01  1.599270000000403961e+05  3.894073598913353749e+02
9.762500000000000000e+01  1.599270000000276195e+05  3.775866434148034045e+02
9.775000000000000000e+01  1.599270000000036089e+05  3.724816918878963747e+02
9.787500000000000000e+01  1.599270000000145228e+05  3.548330518406785927e+02
9.800000000000000000e+01  1.599270000000700820e+05  3.697262232601721053e+02
9.812500000000000000e+01  1.599269999999984866e+05  4.146764404438424094e+02
9.825000000000000000e+01  1.599270000000054133e+05  3.912207401715280071e+02
9.837500000000000000e+01  1.599270000000669679e+05  4.094666463581369840e+02
9.850000000000000000e+01  1.599270000000535802e+05  3.790633439180627420e+02
9.862500000000000000e+01  1.599269999999658612e+05  3.986308480085485826e+02
9.875000000000000000e+01  1.599270000000212458e+05  3.665785304601376993e+02
9.887500000000000000e+01  1.599269999999876018e+05  3.855185102978980467e+02
9.900000000000000000e+01  1.599269999999325664e+05  3.743074687550279123e+02
9.912500000000000000e+01  1.599270000000602449e+05  3.661900956377427292e+02
9.925000000000000000e+01  1.599270000000183063e+05  3.591354229320018590e+02
9.937500000000000000e+01  1.599270000000294822e+05  3.460991050010439949e+02
9.950000000000000000e+01  1.599270000000071304e+05  4.086130686950205018e+02
9.962500000000000000e+01  1.599270000000387081e+05  3.822331315459662733e+02
9.975000000000000000e+01  1.599270000000576838e+05  3.950935074551205162e+02
9.987500000000000000e+01  1.599270000000250584e+05  3.654617564772904643e+02
1.000000000000000000e+02  1.599270000000454602e+05  3.801283409407888030e+02
1.001250000000000000e+02  1.599270000000238069e+05  3.724877537084002483e+02
1.002500000000000000e+02  1.599269999999855645e+05  3.774225777278599026e+02
1.003750000000000000e+02  1.599270000000149885e+05  3.623306065993048719e+02
1.005000000000000000e+02  1.599269999999560532e+05  3.630684138440902302e+02
1.006250000000000000e+02  1.599270000000551227e+05  3.587954283975478234e+02
1.007500000000000000e+02  1.599270000000524742e+05  3.458885794565030096e+02
1.008750000000000000e+02  1.599270000000212749e+05  3.966019477277744159e+02
1.010000000000000000e+02  1.599270000000240107e+05  3.773868481985536505e+02
1.011250000000000000e+02  1.599270000000134460e+05  3.901923791376972872e+02
1.012500000000000000e+02  1.599270000000108848e+05  3.690306466577536071e+02
1.013750000000000000e+02  1.599270000000656291e+05  3.856328127148129852e+02
1.015000000000000000e+02  1.599270000000021246e+05  3.720389700815751439e+02
1.016250000000000000e+02  1.599270000000685686e+05  3.813204574495660495e+02
1.017500000000000000e+02  1.599269999999751744e+05  3.720621258982611721e+02
1.018750000000000000e+02  1.599270000000442669e+05  3.758351028100997269e+02
1.020000000000000000e+02  1.599269999999458087e+05  3.696432572371755327e+02
1.021250000000000000e+02  1.599269999999765132e+05  3.493021740303880165e+02
1.022500000000000000e+02  1.599270000000310829e+05  4.006170280253302280e+02
1.023750000000000000e+02  1.599269999999813735e+05  3.782958418873627124e+02
1.025000000000000000e+02  1.599270000000260770e+05  3.371070298504681091e+02
1.026250000000000000e+02  1.599269999999507563e+05  6.923052146092097701e+02
1.027500000000000000e+02  1.599269999999800057e+05  3.475261758974133386e+02
1.028750000000000000e+02  1.599270000000421715e+05  3.777677845860669095e+02
1.030000000000000000e+02  1.599270000000208092e+05  3.878559939802799477e+02
1.031250000000000000e+02  1.599269999999587308e+05  3.837089067152390385e+02
1.032500000000000000e+02  1.599270000000240980e+05  3.782640959825973823e+02
1.033750000000000000e+02  1.599269999999772408e+05  3.735684379993609241e+02
1.035000000000000000e+02  1.599270000000421132e+05  3.559421710722997432e+02
1.036250000000000000e+02  1.599269999999969150e+05  3.984959377055493519e+02
1.037500000000000000e+02  1.599270000000174332e+05  3.888624963101462413e+02
1.038750000000000000e+02  1.599269999999979918e+05  3.943996716219613745e+02
1.040000000000000000e+02  1.599270000000526197e+05  3.836647377667705996e+02
1.041250000000000000e+02  1.599270000000340806e+05  3.943181429646792822e+02
1.042500000000000000e+02  1.599269999999774154e+05  3.836492822376737877e+02
1.043750000000000000e+02  1.599269999999960128e+05  3.895008962294730850e+02
1.045000000000000000e+02  1.599270000000124855e+05  3.803561879692255161e+02
1.046250000000000000e+02  1.599270000000243308e+05  3.828459656363850172e+02
1.047500000000000000e+02  1.599269999999950815e+05  3.770259192063068099e+02
1.048750000000000000e+02  1.599270000000405707e+05  3.507947173278824380e+02
1.050000000000000000e+02  1.599270000000122818e+05  3.957813219231277913e+02
1.051250000000000000e+02  1.599270000000198197e+05  3.846077351899440373e+02
1.052500000000000000e+02  1.599269999999843712e+05  4.019611468522649602e+02
1.053750000000000000e+02  1.599270000000357686e+05  3.859797033140768576e+02
1.055000000000000000e+02  1.599269999999786378e+05  3.915031495619030579e+02
1.056250000000000000e+02  1.599269999999959255e+05  3.850701281437010266e+02
1.057500000000000000e+02  1.599270000000186556e+05  3.927040334865106956e+02
1.058750000000000000e+02  1.599270000000156288e+05  3.858134383065451516e+02
1.060000000000000000e+02  1.599270000000341097e+05  3.789058539894850242e+02
1.061250000000000000e+02  1.599269999999793945e+05  3.796984835525034896e+02
1.062500000000000000e+02  1.599269999999950232e+05  3.460723631505735511e+02
1.063750000000000000e+02  1.599270000000165601e+05  4.008447281938500169e+02
1.065000000000000000e+02  1.599269999999880674e+05  3.808487456046630655e+02
1.066250000000000000e+02  1.599270000000093423e+05  3.988737841167306897e+02
1.067500000000000000e+02  1.599270000000036671e+05  3.849262177674440295e+02
1.068750000000000000e+02  1.599270000000423752e+05  3.957704146331191737e+02
1.070000000000000000e+02  1.599270000000419095e+05  3.811839570129009189e+02
1.071250000000000000e+02  1.599270000000065484e+05  3.899104771095410342e+02
1.072500000000000000e+02  1.599269999999446154e+05  3.870656907095045653e+02
1.073750000000000000e+02  1.599270000000093714e+05  3.792391556272482376e+02
1.075000000000000000e+02  1.599270000000194996e+05  3.760927447274017936e+02
1.076250000000000000e+02  1.599270000000234577e+05  3.447815760090634285e+02
1.077500000000000000e+02  1.599270000000143773e+05  4.012583473017413098e+02
1.078750000000000000e+02  1.599270000000357104e+05  3.870237523354117570e+02
1.080000000000000000e+02  1.599269999999936554e+05  3.965982892012772822e+02
1.081250000000000000e+02  1.599269999999843130e+05  3.858448773690420808e+02
1.082500000000000000e+02  1.599270000000011642e+05  3.915019764748774946e+02
1.083750000000000000e+02  1.599270000000377186e+05  3.890407936704948497e+02
1.085000000000000000e+02  1.599270000000078580e+05  3.920910171751427242e+02
1.086250000000000000e+02  1.599270000000060827e+05  3.831655865817485278e+02
1.087500000000000000e+02  1.599270000000178698e+05  3.788813968221514301e+02
1.088750000000000000e+02  1.599269999999522406e+05  3.745116520577433903e+02
1.090000000000000000e+02  1.599270000000268337e+05  3.603906946583307445e+02
1.091250000000000000e+02  1.599270000000135042e+05  3.778289258762959548e+02
1.092500000000000000e+02  1.599269999999891734e+05  3.894108229984314562e+02
1.093750000000000000e+02  1.599269999999950232e+05  3.986803907554518105e+02
1.095000000000000000e+02  1.599270000000115542e+05  3.828404808550008056e+02
1.096250000000000000e+02  1.599269999999812571e+05  3.891789988981385022e+02
1.097500000000000000e+02  1.599270000000485161e+05  3.922867755444601698e+02
1.098750000000000000e+02  1.599270000000102737e+05  3.917896983854559494e+02
1.100000000000000000e+02  1.599269999999682768e+05  3.805187253059670525e+02
1.101250000000000000e+02  1.599270000000271248e+05  3.809978594944615224e+02
1.102500000000000000e+02  1.599270000000252912e+05  3.755034426892577812e+02
1.103750000000000000e+02  1.599270000000203727e+05  3.622692480485766282e+02
1.105000000000000000e+02  1.599269999999853317e+05  3.786572496848926903e+02
1.106250000000000000e+02  1.599270000000342261e+05  3.868029507875717172e+02
1.107500000000000000e+02  1.599270000000162108e+05  3.971310593101270570e+02
1.108750000000000000e+02  1.599270000000126893e+05  3.856574795089564986e+02
1.110000000000000000e+02  1.599269999999699357e+05  3.948261218459170436e+02
1.111250000000000000e+02  1.599269999999960710e+05  3.864628644404269266e+02
1.112500000000000000e+02  1.599270000000371365e+05  3.839576416077339331e+02
1.113750000000000000e+02  1.599270000000064319e+05  3.826935764724709088e+02
1.115000000000000000e+02  1.599270000000477303e+05  3.744767428000291716e+02
1.116250000000000000e+02  1.599270000000345171e+05  3.802325408765113366e+02
1.117500000000000000e+02  1.599269999999806751e+05  3.684728954269779138e+02
1.118750000000000000e+02  1.599270000000228174e+05  3.684592040574983116e+02
1.120000000000000000e+02  1.599270000000217697e+05  3.882912989043201719e+02
1.121250000000000000e+02  1.599269999999603024e+05  3.858437544129749881e+02
1.122500000000000000e+02  1.599270000000157452e+05  4.070061347976283628e+02
1.123750000000000000e+02  1.599270000000487489e+05  3.939734047979873139e+02
1.125000000000000000e+02  1.599270000000291329e+05  3.784059562718400684e+02
1.126250000000000000e+02  1.599270000000418513e+05  3.859055315575180884e+02
1.127500000000000000e+02  1.599270000000265427e+05  3.873232870482709700e+02
1.128750000000000000e+02  1.599270000000081782e+05  3.794675428934552883e+02
1.130000000000000000e+02  1.599270000000476430e+05  3.758683171779607051e+02
1.131250000000000000e+02  1.599270000000216241e+05  3.678563443713644574e+02
1.132500000000000000e+02  1.599269999999853026e+05  3.709006268075369803e+02
1.133750000000000000e+02  1.599270000000199652e+05  3.851594560178697861e+02
1.135000000000000000e+02  1.599269999999636202e+05  4.035139742151388873e+02
1.136250000000000000e+02  1.599269999999843130e+05  3.856597221794518759e+02
1.137500000000000000e+02  1.599269999999938009e+05  3.855330726017226652e+02
1.138750000000000000e+02  1.599269999999682768e+05  3.799866805995987420e+02
1.140000000000000000e+02  1.599270000000082364e+05  3.915852918712060955e+02
1.141250000000000000e+02  1.599270000000566070e+05  3.809200390958682192e+02
1.142500000000000000e+02  1.599270000000268337e+05  3.843999234998646557e+02
1.143750000000000000e+02  1.599269999999843130e+05  3.802035281646174667e+02
1.145000000000000000e+02  1.599270000000006694e+05  3.734462003483915282e+02
1.146250000000000000e+02  1.599270000000204018e+05  3.637514558658365900e+02
1.147500000000000000e+02  1.599270000000350410e+05  3.902237393425884306e+02
1.148750000000000000e+02  1.599270000000004366e+05  3.962998508755970875e+02
1.150000000000000000e+02  1.599270000000173459e+05  3.838813114886443714e+02
1.151250000000000000e+02  1.599270000000019500e+05  3.862103582978863301e+02
1.152500000000000000e+02  1.599270000000410073e+05  3.880329098175650415e+02
1.153750000000000000e+02  1.599270000000083528e+05  3.877283085139113723e+02
1.155000000000000000e+02  1.599270000000328582e+05  3.834937270467601138e+02
1.156250000000000000e+02  1.599270000000166765e+05  3.853002735678782642e+02
1.157500000000000000e+02  1.599270000000106229e+05  3.803465068892013505e+02
1.158750000000000000e+02  1.599270000000273576e+05  3.704148183949071722e+02
1.160000000000000000e+02  1.599270000000147847e+05  3.661996954618825839e+02
1.161250000000000000e+02  1.599269999999943830e+05  3.863478225667778361e+02
1.162500000000000000e+02  1.599270000000390282e+05  3.951079762114558207e+02
1.163750000000000000e+02  1.599270000000288419e+05  3.857146798328632826e+02
1.165000000000000000e+02  1.599270000000301807e+05  3.910207286581791664e+02
1.166250000000000000e+02  1.599270000000166765e+05  3.853002735678782642e+02
1.167500000000000000e+02  1.599270000000324508e+05  3.879255900415677729e+02
1.168750000000000000e+02  1.599270000000336731e+05  3.810822187725588037e+02
1.170000000000000000e+02  1.599269999999977299e+05  3.664928532667962031e+02
1.171250000000000000e+02  1.599269999999960710e+05  3.582917380065115935e+02
1.172500000000000000e+02  1.599270000000211294e+05  4.081989137014098219e+02
1.173750000000000000e+02  1.599270000000132131e+05  3.425244294711876591e+02
1.175000000000000000e+02  1.599269999999933934e+05  4.921949256383458646e+02
1.176250000000000000e+02  1.599270000000295113e+05  4.247972577271419823e+02
1.177500000000000000e+02  1.599269999999899301e+05  3.626397322738642970e+02
1.178750000000000000e+02  1.599269999999927823e+05  3.909891759267230782e+02
1.180000000000000000e+02  1.599270000000391447e+05  3.863061170769211117e+02
1.181250000000000000e+02  1.599269999999934225e+05  3.847156634007548632e+02
1.182500000000000000e+02  1.599270000000008440e+05  3.820215136651480066e+02
1.183750000000000000e+02  1.599270000000275904e+05  3.827078209833806000e+02
1.185000000000000000e+02  1.599270000000208092e+05  3.823554629280251334e+02
1.186250000000000000e+02  1.599269999999860884e+05  3.764468261856365530e+02
1.187500000000000000e+02  1.599270000000025320e+05  3.593865168539382466e+02
1.188750000000000000e+02  1.599270000000520085e+05  3.845299052556764536e+02
1.190000000000000000e+02  1.599270000000162399e+05  3.911399968410797214e+02
1.191250000000000000e+02  1.599270000000326254e+05  3.847089847925871027e+02
1.192500000000000000e+02  1.599270000000083819e+05  3.931523218466503522e+02
1.193750000000000000e+02  1.599270000000224099e+05  3.797584259171670169e+02
1.195000000000000000e+02  1.599269999999903084e+05  3.869920242470577705e+02
1.196250000000000000e+02  1.599270000000357686e+05  3.842024260445473374e+02
1.197500000000000000e+02  1.599270000000026484e+05  3.853416540987776671e+02
1.198750000000000000e+02  1.599270000000136206e+05  3.776476967805386380e+02
1.200000000000000000e+02  1.599270000000103028e+05  3.745784175270803757e+02
1.201250000000000000e+02  1.599270000000113214e+05  3.613968778733706131e+02
1.202500000000000000e+02  1.599270000000010477e+05  3.773857974835953542e+02
1.203750000000000000e+02  1.599269999999515130e+05  3.950308278733240854e+02
1.205000000000000000e+02  1.599270000000257860e+05  3.822353150053592685e+02
1.206250000000000000e+02  1.599269999999944412e+05  3.925762324958537874e+02
1.207500000000000000e+02  1.599270000000022992e+05  3.862914670025930945e+02
1.208750000000000000e+02  1.599270000000148721e+05  3.876371817780757851e+02
1.210000000000000000e+02  1.599270000000816945e+05  3.820433136935298535e+02
1.211250000000000000e+02  1.599270000000175496e+05  3.800531983051066618e+02
1.212500000000000000e+02  1.599270000000200525e+05  3.752904004617583951e+02
1.213750000000000000e+02  1.599270000000442087e+05  3.792828801317574516e+02
1.215000000000000000e+02  1.599270000000263099e+05  3.647737969582067876e+02
1.216250000000000000e+02  1.599270000000032305e+05  3.719101818621356301e+02
1.217500000000000000e+02  1.599269999999826250e+05  3.913308188368814626e+02
1.218750000000000000e+02  1.599270000000514847e+05  3.875779838434266367e+02
1.220000000000000000e+02  1.599269999999807333e+05  3.899661130355785872e+02
1.221250000000000000e+02  1.599270000000192376e+05  3.844476792511815120e+02
1.222500000000000000e+02  1.599270000000099535e+05  3.887062564976887984e+02
1.223750000000000000e+02  1.599270000000438595e+05  3.777846481841658033e+02
1.225000000000000000e+02  1.599269999999786960e+05  3.863636065451869399e+02
1.226250000000000000e+02  1.599270000000340515e+05  3.787305052052373071e+02
1.227500000000000000e+02  1.599270000000333821e+05  3.736183862323085236e+02
1.228750000000000000e+02  1.599270000000275904e+05  3.718267421980127097e+02
1.230000000000000000e+02  1.599269999999877473e+05  3.663380166976680812e+02
1.231250000000000000e+02  1.599270000000355940e+05  3.936510325838737572e+02
1.232500000000000000e+02  1.599269999999769207e+05  3.861596912943457482e+02
1.233750000000000000e+02  1.599270000000044529e+05  3.902911312840891469e+02
1.235000000000000000e+02  1.599270000000078871e+05  3.840063396679972243e+02
1.236250000000000000e+02  1.599270000000302098e+05  3.835146773543912673e+02
1.237500000000000000e+02  1.599269999999768042e+05  3.822233064414381261e+02
1.238750000000000000e+02  1.599270000000008440e+05  3.876713467739609200e+02
1.240000000000000000e+02  1.599270000000573928e+05  3.745897198320098482e+02
1.241250000000000000e+02  1.599270000000357104e+05  3.749807923304824726e+02
1.242500000000000000e+02  1.599269999999866704e+05  3.746205495002857901e+02
1.243750000000000000e+02  1.599269999999964784e+05  3.666228366151146929e+02
1.245000000000000000e+02  1.599269999999883294e+05  4.015744670705755652e+02
1.246250000000000000e+02  1.599270000000098662e+05  3.813681588248864500e+02
1.247500000000000000e+02  1.599270000000474975e+05  3.921334459109684190e+02
1.248750000000000000e+02  1.599270000000137370e+05  3.765950036128845682e+02
1.250000000000000000e+02  1.599269999999927240e+05  3.904120594921889733e+02
1.251250000000000000e+02  1.599270000000135042e+05  3.789760617300345871e+02
1.252500000000000000e+02  1.599270000000685686e+05  3.875062995894259643e+02
1.253750000000000000e+02  1.599269999999772990e+05  3.806750004837405754e+02
1.255000000000000000e+02  1.599270000000232540e+05  3.792764804790646167e+02
1.256250000000000000e+02  1.599270000000709842e+05  3.737591645068568482e+02
1.257500000000000000e+02  1.599269999999898137e+05  3.624124665194229351e+02
1.258750000000000000e+02  1.599269999999916181e+05  3.922089087959274707e+02
1.260000000000000000e+02  1.599269999999578577e+05  3.826585198362245137e+02
1.261250000000000000e+02  1.599270000000077707e+05  3.919979579231477373e+02
1.262500000000000000e+02  1.599270000000342552e+05  3.806954921919830213e+02
1.263750000000000000e+02  1.599270000000246218e+05  3.908723804575598706e+02
1.265000000000000000e+02  1.599270000000187720e+05  3.795551651804659059e+02
1.266250000000000000e+02  1.599270000000274449e+05  3.840030187571177294e+02
1.267500000000000000e+02  1.599270000000144064e+05  3.828119637914547297e+02
1.268750000000000000e+02  1.599270000000219734e+05  3.791528174994592177e+02
1.270000000000000000e+02  1.599269999999415886e+05  3.775129977374789974e+02
1.271250000000000000e+02  1.599270000000959553e+05  3.646391349376423818e+02
1.272500000000000000e+02  1.599269999999318097e+05  3.851147843107086715e+02
1.273750000000000000e+02  1.599269999999759893e+05  3.860134318898346351e+02
1.275000000000000000e+02  1.599270000000618456e+05  3.905191281972295769e+02
1.276250000000000000e+02  1.599269999999934516e+05  3.787570575550956846e+02
1.277500000000000000e+02  1.599269999999566062e+05  3.899487242503331572e+02
1.278750000000000000e+02  1.599270000000532018e+05  3.825304259696926579e+02
1.280000000000000000e+02  1.599270000000099535e+05  3.877545193471450489e+02
1.281250000000000000e+02  1.599270000000184809e+05  3.801927844011316324e+02
1.282500000000000000e+02  1.599270000000100699e+05  3.827209711744803258e+02
1.283750000000000000e+02  1.599270000000053842e+05  3.764217993884940370e+02
1.285000000000000000e+02  1.599270000000355940e+05  3.624310787858803451e+02
1.286250000000000000e+02  1.599270000000151340e+05  3.906029825702196376e+02
1.287500000000000000e+02  1.599270000000376604e+05  3.807300120238307954e+02
1.288750000000000000e+02  1.599270000000095752e+05  3.940941995911047684e+02
1.290000000000000000e+02  1.599269999999910942e+05  3.840760987062446361e+02
1.291250000000000000e+02  1.599269999999965949e+05  3.903411168199683061e+02
1.292500000000000000e+02  1.599270000000056752e+05  3.807354065957728153e+02
1.293750000000000000e+02  1.599270000000421423e+05  3.873153358622434439e+02
1.295000000000000000e+02  1.599269999999917054e+05  3.859010376735846535e+02
1.296250000000000000e+02  1.599270000000105065e+05  3.772524279812985242e+02
1.297500000000000000e+02  1.599269999999957508e+05  3.791027470938781789e+02
1.298750000000000000e+02  1.599270000000352156e+05  3.603595868214247844e+02
1.300000000000000000e+02  1.599270000000254659e+05  3.930003486301799853e+02
1.301250000000000000e+02  1.599269999999737774e+05  3.843521855405135170e+02
1.302500000000000000e+02  1.599269999999978754e+05  3.924272889239135225e+02
1.303750000000000000e+02  1.599270000000471482e+05  3.843655059727100820e+02
1.305000000000000000e+02  1.599270000000496511e+05  3.897819101798282304e+02
1.306250000000000000e+02  1.599269999999629799e+05  3.884424554191111838e+02
1.307500000000000000e+02  1.599270000000594882e+05  3.858999142273251550e+02
1.308750000000000000e+02  1.599270000000150467e+05  3.853707402871945078e+02
1.310000000000000000e+02  1.599270000000005821e+05  3.821229154789422182e+02
1.311250000000000000e+02  1.599270000000035798e+05  3.867056916564586686e+02
1.312500000000000000e+02  1.599269999999624561e+05  3.668031163087708251e+02
1.313750000000000000e+02  1.599270000000598084e+05  4.093432297914168885e+02
1.315000000000000000e+02  1.599269999999037245e+05  3.928781855652084118e+02
1.316250000000000000e+02  1.599270000000211294e+05  4.063237907011107950e+02
1.317500000000000000e+02  1.599269999999847496e+05  4.264098434507501452e+02
1.318750000000000000e+02  1.599270000000405125e+05  4.841362723227257447e+02
1.320000000000000000e+02  1.599270000002123707e+05  1.287099753040666428e+03
