# DMC at SINQ, PSI: Sample name = Unknown, wavelength = 2.450 AA, T = 0.0 K
# Filelist='dmc:2022:578'
#   0.000   0.125 132.000     142., sample="Unknown"
0.000000000000000000e+00  1.610639218009594697e+04  1.235303889877866141e+03
1.250000000000000000e-01  1.455976145203216583e+04  8.190505725025252559e+02
2.500000000000000000e-01  1.356618156659946908e+04  5.109319565777831258e+02
3.750000000000000000e-01  1.396371780029044930e+04  5.189574850401623962e+02
5.000000000000000000e-01  1.384855086385724462e+04  3.912269779899334026e+02
6.250000000000000000e-01  1.356032949983085382e+04  3.841591849862451227e+02
7.500000000000000000e-01  1.446241039723602626e+04  3.309207482495344834e+02
8.750000000000000000e-01  1.386177309977119876e+04  3.100361881357514449e+02
1.000000000000000000e+00  1.389937055570288976e+04  3.123651238993508628e+02
1.125000000000000000e+00  1.433608565737154095e+04  2.671371838428543697e+02
1.250000000000000000e+00  1.378944572638002865e+04  2.743659020991339617e+02
1.375000000000000000e+00  1.401830288186043254e+04  2.416948772734557167e+02
1.500000000000000000e+00  1.365081799788980607e+04  2.530099341900838965e+02
1.625000000000000000e+00  1.413624041640388168e+04  2.302307072131449672e+02
1.750000000000000000e+00  1.391847040410623231e+04  2.389811180013961973e+02
1.875000000000000000e+00  1.378901637023916010e+04  2.126931935659323187e+02
2.000000000000000000e+00  1.407465538830529476e+04  2.235480815795313561e+02
2.125000000000000000e+00  1.368562091491535466e+04  1.990122679983955436e+02
2.250000000000000000e+00  1.424695092168498377e+04  2.027227155642160028e+02
2.375000000000000000e+00  1.350607720942920787e+04  1.911769123578635572e+02
2.500000000000000000e+00  1.385544301340120001e+04  1.870138629435465418e+02
2.625000000000000000e+00  1.412766676109952823e+04  1.940401225498329723e+02
2.750000000000000000e+00  1.376990324387298824e+04  1.778279723481009000e+02
2.875000000000000000e+00  1.373315811340028995e+04  1.811705527681934882e+02
3.000000000000000000e+00  1.375939731816441054e+04  1.726410890170365633e+02
3.125000000000000000e+00  1.403938512955717124e+04  1.715439935303415666e+02
3.250000000000000000e+00  1.396911316614107818e+04  1.718567847063137037e+02
3.375000000000000000e+00  1.387034077911615532e+04  1.629101267097258017e+02
3.500000000000000000e+00  1.397712747133181074e+04  1.592324599276024060e+02
3.625000000000000000e+00  1.385488244463954470e+04  1.565148796412157992e+02
3.750000000000000000e+00  1.380588463323636643e+04  1.562007528151168003e+02
3.875000000000000000e+00  1.393653342135767707e+04  1.516274418836366351e+02
4.000000000000000000e+00  1.390523391284348327e+04  1.528878720598211203e+02
4.125000000000000000e+00  1.381231501169886542e+04  1.476682969779940890e+02
4.250000000000000000e+00  1.377031277602166665e+04  1.468504454611401115e+02
4.375000000000000000e+00  1.363999723069300489e+04  1.450817265237704135e+02
4.500000000000000000e+00  1.407284994761756752e+04  1.401758939439884841e+02
4.625000000000000000e+00  1.408530291606701030e+04  1.442693830018473307e+02
4.750000000000000000e+00  1.388262496718826333e+04  1.349546064157051717e+02
4.875000000000000000e+00  1.372966636516106155e+04  1.395403711627598398e+02
5.000000000000000000e+00  1.371794982637542671e+04  1.288311797408933899e+02
5.125000000000000000e+00  1.378411876675270287e+04  1.350411063728326155e+02
5.250000000000000000e+00  1.373035406455696830e+04  1.299835991205752634e+02
5.375000000000000000e+00  1.379622326845725911e+04  1.335980581993757994e+02
5.500000000000000000e+00  1.391079749878444090e+04  1.280809814019871737e+02
5.625000000000000000e+00  1.405325739665556830e+04  1.247909601902406109e+02
5.750000000000000000e+00  1.380589159951046895e+04  1.269537465017869948e+02
5.875000000000000000e+00  1.375087114419302088e+04  1.214894866128046687e+02
6.000000000000000000e+00  1.385994129618810439e+04  1.262553666962256642e+02
6.125000000000000000e+00  1.385784790147026979e+04  1.192958778894735445e+02
6.250000000000000000e+00  1.388067759912229667e+04  1.215733800216338096e+02
6.375000000000000000e+00  1.415483678044931548e+04  1.180800373386444306e+02
6.500000000000000000e+00  1.389049512060141205e+04  1.189178013138639756e+02
6.625000000000000000e+00  1.369158802779752295e+04  1.134601385674240959e+02
6.750000000000000000e+00  1.382245215787161396e+04  1.156336347882474058e+02
6.875000000000000000e+00  1.354781067301084113e+04  1.101193297440614884e+02
7.000000000000000000e+00  1.388858500129156891e+04  1.141480410969930261e+02
7.125000000000000000e+00  1.362828534741799194e+04  1.103080073843145925e+02
7.250000000000000000e+00  1.348537230577562696e+04  1.126051055290091512e+02
7.375000000000000000e+00  1.350988616946256661e+04  1.146636255879803770e+02
7.500000000000000000e+00  1.335920164345530429e+04  1.141645320985743695e+02
7.625000000000000000e+00  1.306717938533641791e+04  1.115549821211231176e+02
7.750000000000000000e+00  1.299985625772313506e+04  1.122137593121407946e+02
7.875000000000000000e+00  1.305948064448375953e+04  1.104793413769435375e+02
8.000000000000000000e+00  1.305047662615058471e+04  1.115710653753018562e+02
8.125000000000000000e+00  1.307019321354808562e+04  1.104988172325085145e+02
8.250000000000000000e+00  1.308499459311083956e+04  1.094222217947492339e+02
8.375000000000000000e+00  1.314053544654267534e+04  1.133141673496649133e+02
8.500000000000000000e+00  1.307254485666376240e+04  1.089189659040081182e+02
8.625000000000000000e+00  1.302972045545725632e+04  1.108200229408843995e+02
8.750000000000000000e+00  1.296330011388289859e+04  1.091977901421501684e+02
8.875000000000000000e+00  1.306445650640306303e+04  1.108312092738169241e+02
9.000000000000000000e+00  1.327478824970873757e+04  1.097352296589582181e+02
9.125000000000000000e+00  1.314594471843847714e+04  1.043624799861276102e+02
9.250000000000000000e+00  1.306071916461575711e+04  1.110555585097550306e+02
9.375000000000000000e+00  1.284137259079090290e+04  1.018194995449511140e+02
9.500000000000000000e+00  1.285045963724505782e+04  1.112646037449244432e+02
9.625000000000000000e+00  1.300817046355439197e+04  1.038198087948068604e+02
9.750000000000000000e+00  1.287322690229751424e+04  1.078665247938587868e+02
9.875000000000000000e+00  1.288887304904013581e+04  1.042890119550108068e+02
1.000000000000000000e+01  1.292606347852598810e+04  1.049755208715374124e+02
1.012500000000000000e+01  1.272539875100317659e+04  1.057260896423613445e+02
1.025000000000000000e+01  1.278079802420286978e+04  1.043617365639294832e+02
1.037500000000000000e+01  1.306093272271440583e+04  1.076478935651496300e+02
1.050000000000000000e+01  1.297755461828642001e+04  1.017511044694316809e+02
1.062500000000000000e+01  1.302476469040765187e+04  1.068501397673144453e+02
1.075000000000000000e+01  1.300789113003174862e+04  1.036066080416213708e+02
1.087500000000000000e+01  1.312224234157347018e+04  1.072213178782246672e+02
1.100000000000000000e+01  1.308118607712896664e+04  1.058104615844606116e+02
1.112500000000000000e+01  1.300047752682351529e+04  1.056635151480485462e+02
1.125000000000000000e+01  1.290510849363999478e+04  1.071969709964357094e+02
1.137500000000000000e+01  1.297399125762193216e+04  1.066095405482622311e+02
1.150000000000000000e+01  1.305455008628555333e+04  1.069470413869971992e+02
1.162500000000000000e+01  1.299392577106400313e+04  1.069250691147548480e+02
1.175000000000000000e+01  1.282681908192891387e+04  1.064622129874965282e+02
1.187500000000000000e+01  1.311788779497712858e+04  1.048994732519118998e+02
1.200000000000000000e+01  1.307650085521787878e+04  1.081182657112180578e+02
1.212500000000000000e+01  1.307448377491688188e+04  1.036971841161524566e+02
1.225000000000000000e+01  1.310867855097235588e+04  1.106937148134249611e+02
1.237500000000000000e+01  1.310392230175536133e+04  1.043350890559840281e+02
1.250000000000000000e+01  1.302285402184839586e+04  1.106256648832824254e+02
1.262500000000000000e+01  1.300111582465583524e+04  1.065593640703683462e+02
1.275000000000000000e+01  1.303000268882326418e+04  1.082680331536088403e+02
1.287500000000000000e+01  1.308899366486453255e+04  1.057871326984817699e+02
1.300000000000000000e+01  1.319053833503519490e+04  1.109153744548701042e+02
1.312500000000000000e+01  1.321942328670140341e+04  1.077602742123354034e+02
1.325000000000000000e+01  1.331312777750713394e+04  1.075634918230747417e+02
1.337500000000000000e+01  1.315046773288389340e+04  1.081071362535442546e+02
1.350000000000000000e+01  1.313635786471658867e+04  1.052391440961638978e+02
1.362500000000000000e+01  1.327637635060087814e+04  1.117517926359434739e+02
1.375000000000000000e+01  1.353755529396883321e+04  1.071443770013421357e+02
1.387500000000000000e+01  1.374304064803288384e+04  1.132967508288204215e+02
1.400000000000000000e+01  1.410529676526890034e+04  1.117323521587968571e+02
1.412500000000000000e+01  1.509546814747064309e+04  1.175608173078536254e+02
1.425000000000000000e+01  1.538206533123597728e+04  1.161448231566504745e+02
1.437500000000000000e+01  1.673089458436371206e+04  1.259065739946724847e+02
1.450000000000000000e+01  1.686693673515529736e+04  1.125914564193397069e+02
1.462500000000000000e+01  1.691447803673639646e+04  1.274868105019910018e+02
1.475000000000000000e+01  1.668320715555853894e+04  1.225216863070202180e+02
1.487500000000000000e+01  1.605165083319738915e+04  1.205630792565445404e+02
1.500000000000000000e+01  1.577853635739549100e+04  1.206614832611742258e+02
1.512500000000000000e+01  1.536587719041996024e+04  1.175195455201487249e+02
1.525000000000000000e+01  1.496322909515547872e+04  1.178938185236728629e+02
1.537500000000000000e+01  1.433643333712413369e+04  1.141593543179424870e+02
1.550000000000000000e+01  1.427470304111396399e+04  1.170883924412899120e+02
1.562500000000000000e+01  1.389559329822535983e+04  1.096728152308181876e+02
1.575000000000000000e+01  1.343037065694837656e+04  1.132850429637741598e+02
1.587500000000000000e+01  1.345109763566932816e+04  1.093440634221342265e+02
1.600000000000000000e+01  1.315608632820451021e+04  1.083916580074410803e+02
1.612500000000000000e+01  1.313282460234309656e+04  1.073866799914059555e+02
1.625000000000000000e+01  1.303307041384411059e+04  1.096455547150993510e+02
1.637500000000000000e+01  1.297718043988867976e+04  1.075953800368838102e+02
1.650000000000000000e+01  1.335229524601987032e+04  1.114628071393891844e+02
1.662500000000000000e+01  1.310000174187023913e+04  1.079772346427747891e+02
1.675000000000000000e+01  1.305245896162000099e+04  1.097543054357109753e+02
1.687500000000000000e+01  1.302936649238186146e+04  1.079464659359053087e+02
1.700000000000000000e+01  1.309458542354472411e+04  1.103193434642093536e+02
1.712500000000000000e+01  1.338974662224994245e+04  1.114806250089908701e+02
1.725000000000000000e+01  1.306553454702444287e+04  1.096319500522480865e+02
1.737500000000000000e+01  1.301841836740484541e+04  1.074984949386374637e+02
1.750000000000000000e+01  1.333848353626504831e+04  1.077050950390614616e+02
1.762500000000000000e+01  1.322447274635040594e+04  1.110320576307723570e+02
1.775000000000000000e+01  1.313880264572577471e+04  1.070852940145827006e+02
1.787500000000000000e+01  1.261901898626506772e+04  1.088655813797383018e+02
1.800000000000000000e+01  1.302028539693786661e+04  1.076718719966598030e+02
1.812500000000000000e+01  1.297865053186565819e+04  1.106300181576143160e+02
1.825000000000000000e+01  1.292679719517545891e+04  1.080577560084526567e+02
1.837500000000000000e+01  1.295168043775734441e+04  1.109944718407841293e+02
1.850000000000000000e+01  1.312664887240257121e+04  1.100518132696892906e+02
1.862500000000000000e+01  1.298946579604334875e+04  1.103221403742419824e+02
1.875000000000000000e+01  1.302739109836611351e+04  1.048994043395121025e+02
1.887500000000000000e+01  1.296294303931294417e+04  1.103239183465092594e+02
1.900000000000000000e+01  1.308882078375247511e+04  1.071630880353389017e+02
1.912500000000000000e+01  1.328389402404637985e+04  1.118943785637671908e+02
1.925000000000000000e+01  1.312251749443201879e+04  1.099052192775395724e+02
1.937500000000000000e+01  1.300286458528426192e+04  1.103047302798476466e+02
1.950000000000000000e+01  1.318220557025551898e+04  1.092877558309891270e+02
1.962500000000000000e+01  1.298718593847082593e+04  1.107994224575037947e+02
1.975000000000000000e+01  1.299572950456233229e+04  1.108561751252317578e+02
1.987500000000000000e+01  1.312774003512105992e+04  1.110409031198899470e+02
2.000000000000000000e+01  1.285098906589042417e+04  1.103628033881068546e+02
2.012500000000000000e+01  1.328027032405724640e+04  1.079055052548548446e+02
2.025000000000000000e+01  1.290076365646452359e+04  1.098544210796998044e+02
2.037500000000000000e+01  1.290269192277846741e+04  1.065792352314207250e+02
2.050000000000000000e+01  1.314974486103688832e+04  1.115989282854723825e+02
2.062500000000000000e+01  1.308355521923181732e+04  1.111132459271204027e+02
2.075000000000000000e+01  1.314381647108319521e+04  1.106987541665806134e+02
2.087500000000000000e+01  1.300368119004048276e+04  1.095651585103923509e+02
2.100000000000000000e+01  1.290289245472687617e+04  1.110915695259396188e+02
2.112500000000000000e+01  1.296753446702513247e+04  1.101438186459367614e+02
2.125000000000000000e+01  1.294915558334724119e+04  1.113208469584033082e+02
2.137500000000000000e+01  1.327685427001059907e+04  1.124470910045336467e+02
2.150000000000000000e+01  1.302521924580059385e+04  1.091707531689036870e+02
2.162500000000000000e+01  1.295442453745709827e+04  1.065711578601213176e+02
2.175000000000000000e+01  1.297994934866530457e+04  1.119668656055000895e+02
2.187500000000000000e+01  1.318098054316429989e+04  1.091763420378362639e+02
2.200000000000000000e+01  1.281470101091582183e+04  1.118516198113545954e+02
2.212500000000000000e+01  1.297103606913016483e+04  1.099793382028493340e+02
2.225000000000000000e+01  1.301723564867609457e+04  1.119061152783806961e+02
2.237500000000000000e+01  1.316888953956257501e+04  1.112219837729250855e+02
2.250000000000000000e+01  1.311317872804398030e+04  1.136501503318157233e+02
2.262500000000000000e+01  1.299510596760388216e+04  1.103819876470607539e+02
2.275000000000000000e+01  1.308116510744595507e+04  1.133982490575848203e+02
2.287500000000000000e+01  1.292360400400430626e+04  1.080990669406663898e+02
2.300000000000000000e+01  1.333411935019589328e+04  1.124012120154225016e+02
2.312500000000000000e+01  1.316701408217851167e+04  1.095920134429538848e+02
2.325000000000000000e+01  1.286852051317774203e+04  1.092043752701408579e+02
2.337500000000000000e+01  1.314042895355335168e+04  1.113955743775339471e+02
2.350000000000000000e+01  1.286021334698976352e+04  1.106666997511190402e+02
2.362500000000000000e+01  1.297614403562732514e+04  1.118259197093962030e+02
2.375000000000000000e+01  1.307197600263964887e+04  1.109828948818705783e+02
2.387500000000000000e+01  1.326715317771179616e+04  1.158405161927471028e+02
2.400000000000000000e+01  1.296695407310694100e+04  1.095086633362874977e+02
2.412500000000000000e+01  1.311616660828023669e+04  1.135439263397452549e+02
2.425000000000000000e+01  1.299562362098772428e+04  1.112975181471807389e+02
2.437500000000000000e+01  1.311517285824451028e+04  1.093957137530918970e+02
2.450000000000000000e+01  1.306273403663676800e+04  1.100119668360938334e+02
2.462500000000000000e+01  1.300462358786660661e+04  1.121213233912495610e+02
2.475000000000000000e+01  1.306103137964539019e+04  1.128048741478592518e+02
2.487500000000000000e+01  1.303081528922715370e+04  1.110908151277730269e+02
2.500000000000000000e+01  1.311214440863066193e+04  1.122954290482220472e+02
2.512500000000000000e+01  1.328356791549948866e+04  1.136593813970101792e+02
2.525000000000000000e+01  1.308492753130192796e+04  1.127508352688928994e+02
2.537500000000000000e+01  1.294112594711067868e+04  1.108145330744262083e+02
2.550000000000000000e+01  1.293365676510958110e+04  1.126242371053661060e+02
2.562500000000000000e+01  1.304889809465181133e+04  1.140479355054235384e+02
2.575000000000000000e+01  1.314066280620629550e+04  1.101499498506870509e+02
2.587500000000000000e+01  1.321680776774042170e+04  1.094580763489438198e+02
2.600000000000000000e+01  1.295697113928787985e+04  1.129343484822386898e+02
2.612500000000000000e+01  1.326572915307060248e+04  1.121960430305752254e+02
2.625000000000000000e+01  1.311523701840003923e+04  1.140110610070410644e+02
2.637500000000000000e+01  1.322787812881814534e+04  1.133822753184686576e+02
2.650000000000000000e+01  1.327904100428484890e+04  1.124051557125995089e+02
2.662500000000000000e+01  1.335813906423773369e+04  1.158384655554211093e+02
2.675000000000000000e+01  1.308727236966169221e+04  1.135109186819701961e+02
2.687500000000000000e+01  1.322070823034993737e+04  1.141584197685796767e+02
2.700000000000000000e+01  1.332910583705317913e+04  1.136049183237120701e+02
2.712500000000000000e+01  1.342067621801715723e+04  1.119751321619389728e+02
2.725000000000000000e+01  1.332069283025582990e+04  1.123759036031641756e+02
2.737500000000000000e+01  1.335600392172847569e+04  1.111534684825537340e+02
2.750000000000000000e+01  1.359284546182051599e+04  1.184452071769225370e+02
2.762500000000000000e+01  1.374614741657778177e+04  1.146587715042155509e+02
2.775000000000000000e+01  1.387924132455703329e+04  1.162063443110345560e+02
2.787500000000000000e+01  1.450817712639723868e+04  1.202807914724173770e+02
2.800000000000000000e+01  1.511400000000000000e+04  1.229390092688240230e+02
2.812500000000000000e+01  1.631154291258655394e+04  1.277853853643901942e+02
2.825000000000000000e+01  1.813449274001501544e+04  1.347554028789241158e+02
2.837500000000000000e+01  2.178210548541384560e+04  1.459063019895888829e+02
2.850000000000000000e+01  2.742726245980172098e+04  1.617768649356855519e+02
2.862500000000000000e+01  3.193890009732406179e+04  1.751714476719835716e+02
2.875000000000000000e+01  3.659539674779540655e+04  1.879531322684778161e+02
2.887500000000000000e+01  3.827636494938886608e+04  1.947963369559292630e+02
2.900000000000000000e+01  3.780738402479034266e+04  1.947489312462463715e+02
2.912500000000000000e+01  3.375504247973402380e+04  1.654340955470248957e+02
2.925000000000000000e+01  3.153926094829705107e+04  1.819132145214068998e+02
2.937500000000000000e+01  2.600748385285917539e+04  1.667283428433202630e+02
2.950000000000000000e+01  2.230940431701294438e+04  1.501270456229226511e+02
2.962500000000000000e+01  1.878880576822410512e+04  1.393331531742320522e+02
2.975000000000000000e+01  1.672617492468270939e+04  1.290375605679292903e+02
2.987500000000000000e+01  1.493733130000892379e+04  1.206547529575600350e+02
3.000000000000000000e+01  1.409516962011171017e+04  1.186396523099597289e+02
3.012500000000000000e+01  1.396107670583164690e+04  1.160766011097164636e+02
3.025000000000000000e+01  1.348975925719040424e+04  1.157929914091813686e+02
3.037500000000000000e+01  1.338153125602455293e+04  1.153580280691771947e+02
3.050000000000000000e+01  1.332725000000017826e+04  1.162500880717084044e+02
3.062500000000000000e+01  1.352982019531883088e+04  1.163858191988433788e+02
3.075000000000000000e+01  1.320141648153342794e+04  1.154338717779293262e+02
3.087500000000000000e+01  1.319887740259495331e+04  1.150909287882847707e+02
3.100000000000000000e+01  1.318936678849857344e+04  1.166059664231095070e+02
3.112500000000000000e+01  1.325069243867430305e+04  1.149672492098151935e+02
3.125000000000000000e+01  1.309578101728420006e+04  1.128359803419870389e+02
3.137500000000000000e+01  1.340527913263255869e+04  1.124866821902610354e+02
3.150000000000000000e+01  1.324531390296361496e+04  1.147522583294841922e+02
3.162500000000000000e+01  1.289555266703017332e+04  1.139371612107899523e+02
3.175000000000000000e+01  1.318777109169923642e+04  1.129555413527125438e+02
3.187500000000000000e+01  1.329671860861417554e+04  1.164900780016361352e+02
3.200000000000000000e+01  1.332547664759624240e+04  1.162036784970503334e+02
3.212500000000000000e+01  1.371279958234672813e+04  1.170965382484415898e+02
3.225000000000000000e+01  1.388424388719737908e+04  1.202290568819143175e+02
3.237500000000000000e+01  1.436591885545930381e+04  1.205858385084563622e+02
3.250000000000000000e+01  1.534694430206918150e+04  1.246237196823785069e+02
3.262500000000000000e+01  1.597874307289612807e+04  1.244471530785456395e+02
3.275000000000000000e+01  1.735346171763108578e+04  1.312924248952551807e+02
3.287500000000000000e+01  1.791537628875658993e+04  1.329584205429963504e+02
3.300000000000000000e+01  1.804754134993186017e+04  1.347694857763020480e+02
3.312500000000000000e+01  1.759413887785220504e+04  1.332239557122435372e+02
3.325000000000000000e+01  1.703356129725211576e+04  1.311671737546428176e+02
3.337500000000000000e+01  1.598015146740817545e+04  1.271674827673242874e+02
3.350000000000000000e+01  1.531577023279712557e+04  1.262751068576534692e+02
3.362500000000000000e+01  1.447892060237497026e+04  1.214274658814104129e+02
3.375000000000000000e+01  1.393499124375254905e+04  1.203620263211979449e+02
3.387500000000000000e+01  1.346120119742281167e+04  1.172847292320595614e+02
3.400000000000000000e+01  1.340501695968044078e+04  1.159792758697381601e+02
3.412500000000000000e+01  1.313985799405451326e+04  1.115632433820710219e+02
3.425000000000000000e+01  1.276679520018605945e+04  1.148624546746591051e+02
3.437500000000000000e+01  1.299083594223790715e+04  1.145601305982140303e+02
3.450000000000000000e+01  1.292756703681134240e+04  1.138561908619108181e+02
3.462500000000000000e+01  1.321386523897743245e+04  1.171066502253703590e+02
3.475000000000000000e+01  1.296032590481082298e+04  1.152267983020691844e+02
3.487500000000000000e+01  1.299853903263068605e+04  1.149998015920886161e+02
3.500000000000000000e+01  1.297674761759037210e+04  1.175196721739590089e+02
3.512500000000000000e+01  1.306702341667260771e+04  1.169967504512463563e+02
3.525000000000000000e+01  1.300112386469882040e+04  1.161416605015840844e+02
3.537500000000000000e+01  1.302096030634680028e+04  1.151396013084303860e+02
3.550000000000000000e+01  1.307436945104085135e+04  1.126765916263360197e+02
3.562500000000000000e+01  1.305128400876859087e+04  1.122693693655181733e+02
3.575000000000000000e+01  1.302731136351749046e+04  1.171589025937612263e+02
3.587500000000000000e+01  1.298891240375069356e+04  1.148786721329851872e+02
3.600000000000000000e+01  1.298119191932521608e+04  1.159589776231678258e+02
3.612500000000000000e+01  1.296216677802364939e+04  1.154029112554297711e+02
3.625000000000000000e+01  1.294777623851191493e+04  1.174936257916199054e+02
3.637500000000000000e+01  1.320930666467219453e+04  1.172459588697855963e+02
3.650000000000000000e+01  1.307515088999206637e+04  1.178707102347837861e+02
3.662500000000000000e+01  1.306097741528614824e+04  1.181227319386035788e+02
3.675000000000000000e+01  1.310993154913523358e+04  1.177211675118749383e+02
3.687500000000000000e+01  1.327072477840344254e+04  1.124395462183045993e+02
3.700000000000000000e+01  1.299974869301860235e+04  1.145719235019445819e+02
3.712500000000000000e+01  1.295025813914676291e+04  1.150509258473037448e+02
3.725000000000000000e+01  1.297380851629634162e+04  1.159902465924349144e+02
3.737500000000000000e+01  1.294264667175252180e+04  1.166477670473375809e+02
3.750000000000000000e+01  1.285663777109919283e+04  1.151684533674022646e+02
3.762500000000000000e+01  1.284290242128501995e+04  1.170636586776828807e+02
3.775000000000000000e+01  1.294199669856951914e+04  1.164387370424305743e+02
3.787500000000000000e+01  1.320409389439225379e+04  1.204961759229417595e+02
3.800000000000000000e+01  1.295820155653785878e+04  1.160782514262232041e+02
3.812500000000000000e+01  1.287427036901081192e+04  1.172667926848363322e+02
3.825000000000000000e+01  1.279397329481043926e+04  1.092863496251835613e+02
3.837500000000000000e+01  1.302044117135562919e+04  1.158299559164957060e+02
3.850000000000000000e+01  1.291417047308451765e+04  1.160897594237392241e+02
3.862500000000000000e+01  1.276518148193396519e+04  1.146948518419628016e+02
3.875000000000000000e+01  1.288268087516012565e+04  1.174994815024008403e+02
3.887500000000000000e+01  1.283164077347249804e+04  1.156473078296947818e+02
3.900000000000000000e+01  1.311806010331738253e+04  1.178749742645664753e+02
3.912500000000000000e+01  1.292567243937433159e+04  1.172737342557820313e+02
3.925000000000000000e+01  1.305130267432314395e+04  1.170390981781550153e+02
3.937500000000000000e+01  1.292863896761503929e+04  1.192605798449208265e+02
3.950000000000000000e+01  1.291803361961102382e+04  1.179200603010288404e+02
3.962500000000000000e+01  1.276736274889219931e+04  1.110961755881689612e+02
3.975000000000000000e+01  1.290073700367515994e+04  1.140408476650204932e+02
3.987500000000000000e+01  1.302009914009981730e+04  1.159416637846806992e+02
4.000000000000000000e+01  1.308613027581530514e+04  1.167892530896782404e+02
4.012500000000000000e+01  1.336838106190506551e+04  1.183598861491336152e+02
4.025000000000000000e+01  1.319935137678575120e+04  1.186917163060583817e+02
4.037500000000000000e+01  1.363046752411174202e+04  1.202475088165849257e+02
4.050000000000000000e+01  1.344787041100293936e+04  1.185075903490770912e+02
4.062500000000000000e+01  1.348572551460342584e+04  1.217899268667586057e+02
4.075000000000000000e+01  1.340041469078005503e+04  1.185598889626319448e+02
4.087500000000000000e+01  1.331336943247425006e+04  1.203905811551405947e+02
4.100000000000000000e+01  1.294031032317070276e+04  1.134416837893463992e+02
4.112500000000000000e+01  1.314389211929266276e+04  1.165506166312004126e+02
4.125000000000000000e+01  1.294260238710177327e+04  1.151557294805129743e+02
4.137500000000000000e+01  1.287170744628793182e+04  1.158908051198128248e+02
4.150000000000000000e+01  1.288178715987518626e+04  1.169574303345223001e+02
4.162500000000000000e+01  1.289055989488146406e+04  1.171143390862364839e+02
4.175000000000000000e+01  1.297674301100637058e+04  1.181952736460727067e+02
4.187500000000000000e+01  1.281473841205006102e+04  1.167100152160524544e+02
4.200000000000000000e+01  1.299811307630861484e+04  1.185967120760949030e+02
4.212500000000000000e+01  1.307459818296110279e+04  1.181011086763583222e+02
4.225000000000000000e+01  1.296500151823251872e+04  1.177615047303280846e+02
4.237500000000000000e+01  1.286388261950293600e+04  1.127760112696002608e+02
4.250000000000000000e+01  1.300744883450629459e+04  1.149617099274255168e+02
4.262500000000000000e+01  1.293080357348697180e+04  1.150188861763032122e+02
4.275000000000000000e+01  1.305102282824777649e+04  1.161801891333097814e+02
4.287500000000000000e+01  1.311682153184914205e+04  1.158469480577227415e+02
4.300000000000000000e+01  1.295153246948780907e+04  1.163974046617271796e+02
4.312500000000000000e+01  1.304828276857900528e+04  1.164885959528754427e+02
4.325000000000000000e+01  1.319256289461929919e+04  1.172498566673153704e+02
4.337500000000000000e+01  1.306783007377503600e+04  1.171731761577314330e+02
4.350000000000000000e+01  1.324150968216543151e+04  1.163731870890978968e+02
4.362500000000000000e+01  1.310992267330738832e+04  1.181553699787046412e+02
4.375000000000000000e+01  1.311056948264412858e+04  1.090429235202461342e+02
4.387500000000000000e+01  1.331230300626547069e+04  1.079237968678500721e+02
4.400000000000000000e+01  1.324530178150322172e+04  1.219380532406879922e+02
4.412500000000000000e+01  1.349759566875379642e+04  1.163542599231804218e+02
4.425000000000000000e+01  1.328335295051575304e+04  1.185352371797303874e+02
4.437500000000000000e+01  1.303203337053999530e+04  1.152961304490747239e+02
4.450000000000000000e+01  1.320976101961819404e+04  1.149283348675726870e+02
4.462500000000000000e+01  1.321869555043865148e+04  1.156247498990861118e+02
4.475000000000000000e+01  1.316433763083477788e+04  1.157754678225951608e+02
4.487500000000000000e+01  1.299638899185142509e+04  1.146581519740175139e+02
4.500000000000000000e+01  1.308033663629602597e+04  1.150500589064308343e+02
4.512500000000000000e+01  1.296157000735319161e+04  1.108596115761891809e+02
4.525000000000000000e+01  1.291675375424770391e+04  1.121585782488347292e+02
4.537500000000000000e+01  1.288845309652898686e+04  1.134149757782914207e+02
4.550000000000000000e+01  1.324696386097627328e+04  1.148830212391899863e+02
4.562500000000000000e+01  1.286034359231908275e+04  1.157931837174353689e+02
4.575000000000000000e+01  1.327268125115531257e+04  1.162616459589760467e+02
4.587500000000000000e+01  1.328155104263382782e+04  1.173384455753045330e+02
4.600000000000000000e+01  1.345867348343652884e+04  1.187966846076258776e+02
4.612500000000000000e+01  1.324164289177116370e+04  1.194104362225691744e+02
4.625000000000000000e+01  1.359474636483840550e+04  1.182464838887686227e+02
4.637500000000000000e+01  1.378072730147096809e+04  1.230716451579374393e+02
4.650000000000000000e+01  1.450229661271920304e+04  1.231753588440142124e+02
4.662500000000000000e+01  1.524839190195352785e+04  1.230149127804782552e+02
4.675000000000000000e+01  1.676685118505923674e+04  1.339891085486086411e+02
4.687500000000000000e+01  1.854744207795887996e+04  1.390384851211103694e+02
4.700000000000000000e+01  2.034877559774392284e+04  1.492084728156675055e+02
4.712500000000000000e+01  2.282254063835564739e+04  1.568383553655957314e+02
4.725000000000000000e+01  2.413540014994025478e+04  1.629357553117959299e+02
4.737500000000000000e+01  2.545263298690104057e+04  1.656369144520863301e+02
4.750000000000000000e+01  2.623896118628639306e+04  1.731916336476955962e+02
4.762500000000000000e+01  2.555184897358024318e+04  1.681479424634130737e+02
4.775000000000000000e+01  2.437290747362024922e+04  1.674530667365734189e+02
4.787500000000000000e+01  2.279756499983282629e+04  1.568037756773915135e+02
4.800000000000000000e+01  2.040818407302441847e+04  1.436875429756083236e+02
4.812500000000000000e+01  1.834377532780551701e+04  1.392078845992179197e+02
4.825000000000000000e+01  1.661854407798274406e+04  1.340379525892302581e+02
4.837500000000000000e+01  1.533832949940075559e+04  1.302527212292487491e+02
4.850000000000000000e+01  1.458974825354344466e+04  1.254942151045008671e+02
4.862500000000000000e+01  1.387458624342539406e+04  1.239444760202036946e+02
4.875000000000000000e+01  1.377343950537366800e+04  1.245101986061098103e+02
4.887500000000000000e+01  1.355075224104857080e+04  1.244655786749532638e+02
4.900000000000000000e+01  1.365965181531166672e+04  1.242556947430980756e+02
4.912500000000000000e+01  1.323246426307928778e+04  1.220736124181758555e+02
4.925000000000000000e+01  1.346281544386458700e+04  1.237989482056581636e+02
4.937500000000000000e+01  1.316037568866989022e+04  1.147901205648198157e+02
4.950000000000000000e+01  1.315274110038957770e+04  1.184835470663080770e+02
4.962500000000000000e+01  1.292451297650187371e+04  1.190655844438043118e+02
4.975000000000000000e+01  1.300248197918057303e+04  1.179075502821092982e+02
4.987500000000000000e+01  1.330339550456190045e+04  1.231743080125727801e+02
5.000000000000000000e+01  1.309402382777180719e+04  1.213398295263211111e+02
5.012500000000000000e+01  1.330657657455535627e+04  1.222176351446455556e+02
5.025000000000000000e+01  1.350006392697565570e+04  1.242307947913741515e+02
5.037500000000000000e+01  1.335918717298088268e+04  1.230751930074697071e+02
5.050000000000000000e+01  1.311000061849189296e+04  1.220869449030588925e+02
5.062500000000000000e+01  1.362612828184798309e+04  1.243009485129929033e+02
5.075000000000000000e+01  1.382493965186929745e+04  1.188629342151524497e+02
5.087500000000000000e+01  1.351972468559972913e+04  1.209095854565216541e+02
5.100000000000000000e+01  1.342170095922623477e+04  1.189579185329353521e+02
5.112500000000000000e+01  1.350134751712532852e+04  1.237458538929463003e+02
5.125000000000000000e+01  1.337127592514027674e+04  1.219507537787956153e+02
5.137500000000000000e+01  1.347667792779641422e+04  1.257581840722879036e+02
5.150000000000000000e+01  1.331411584994979421e+04  1.219939291641504582e+02
5.162500000000000000e+01  1.316659273972794836e+04  1.232138040459549160e+02
5.175000000000000000e+01  1.332407866631314209e+04  1.221211060457739279e+02
5.187500000000000000e+01  1.302302026096986447e+04  1.221970675766012278e+02
5.200000000000000000e+01  1.305572933164716960e+04  1.218300846309322054e+02
5.212500000000000000e+01  1.322841523754311675e+04  1.167006175754468558e+02
5.225000000000000000e+01  1.334009859461288033e+04  1.203521308459177277e+02
5.237500000000000000e+01  1.299182678785242206e+04  1.195640011695495275e+02
5.250000000000000000e+01  1.320067819447007605e+04  1.220038216672158313e+02
5.262500000000000000e+01  1.339849305478887254e+04  1.218095158713327493e+02
5.275000000000000000e+01  1.318144941405572717e+04  1.232988570893244145e+02
5.287500000000000000e+01  1.320302361287990607e+04  1.199036838629159689e+02
5.300000000000000000e+01  1.335641798576516157e+04  1.246251217972394301e+02
5.312500000000000000e+01  1.377169613791453048e+04  1.239336160288113433e+02
5.325000000000000000e+01  1.381369888522161091e+04  1.274139975557915108e+02
5.337500000000000000e+01  1.463477622127172799e+04  1.282617829142743631e+02
5.350000000000000000e+01  1.539074251959113644e+04  1.274227021394496973e+02
5.362500000000000000e+01  1.597868083942949488e+04  1.297793652496064283e+02
5.375000000000000000e+01  1.645486575626139529e+04  1.347221615133446448e+02
5.387500000000000000e+01  1.692141820779177942e+04  1.376589735381061246e+02
5.400000000000000000e+01  1.728603596629214735e+04  1.363007922132783563e+02
5.412500000000000000e+01  1.736458365378682720e+04  1.402377610661232552e+02
5.425000000000000000e+01  1.720649493468076980e+04  1.379923926646532948e+02
5.437500000000000000e+01  1.720044193882200852e+04  1.405769771571147260e+02
5.450000000000000000e+01  1.665045528355346687e+04  1.349022327095560172e+02
5.462500000000000000e+01  1.600042854422942219e+04  1.368808482862407914e+02
5.475000000000000000e+01  1.529316175520481011e+04  1.303636481126037836e+02
5.487500000000000000e+01  1.461250879217313923e+04  1.230726170374011161e+02
5.500000000000000000e+01  1.414966715616067086e+04  1.229012664084798843e+02
5.512500000000000000e+01  1.365861135911803103e+04  1.222005548559179999e+02
5.525000000000000000e+01  1.320293932653219963e+04  1.200316812396041115e+02
5.537500000000000000e+01  1.332806255461660840e+04  1.201653238030412609e+02
5.550000000000000000e+01  1.324064396655653763e+04  1.217713898682065121e+02
5.562500000000000000e+01  1.288522592538085155e+04  1.177432838457908986e+02
5.575000000000000000e+01  1.290559882157029824e+04  1.211913528207718826e+02
5.587500000000000000e+01  1.265409583085707163e+04  1.176171412025749845e+02
5.600000000000000000e+01  1.285238526896034637e+04  1.209907578264604950e+02
5.612500000000000000e+01  1.276701077117382010e+04  1.170940497627622676e+02
5.625000000000000000e+01  1.267362618202073099e+04  1.137987577635710181e+02
5.637500000000000000e+01  1.246820506854949963e+04  1.115234773910544135e+02
5.650000000000000000e+01  1.265589574007884585e+04  1.156815116169445332e+02
5.662500000000000000e+01  1.261537161962835671e+04  1.163263023280882322e+02
5.675000000000000000e+01  1.249175762461602244e+04  1.163345985350812128e+02
5.687500000000000000e+01  1.269232420319265475e+04  1.177640831356025899e+02
5.700000000000000000e+01  1.288945107092955186e+04  1.182219969284170702e+02
5.712500000000000000e+01  1.291136225568389818e+04  1.226708532158165355e+02
5.725000000000000000e+01  1.288607814246530506e+04  1.203623223083273786e+02
5.737500000000000000e+01  1.290518320835674967e+04  1.218120761649382047e+02
5.750000000000000000e+01  1.304626477851053096e+04  1.211524176485443007e+02
5.762500000000000000e+01  1.322083702604377868e+04  1.213738366852904278e+02
5.775000000000000000e+01  1.311339943916395350e+04  1.166753820615845001e+02
5.787500000000000000e+01  1.312787716344245018e+04  1.211190722292768385e+02
5.800000000000000000e+01  1.291406218484030251e+04  1.190349905768957512e+02
5.812500000000000000e+01  1.316808131273074105e+04  1.233141567529651752e+02
5.825000000000000000e+01  1.271915375607158057e+04  1.212613494747593279e+02
5.837500000000000000e+01  1.289584974024302937e+04  1.235425089449832825e+02
5.850000000000000000e+01  1.307384061657909479e+04  1.197370702186348836e+02
5.862500000000000000e+01  1.319823092733202429e+04  1.569994667099769003e+02
5.875000000000000000e+01  1.307455832209038272e+04  1.190565717356445674e+02
5.887500000000000000e+01  1.333476067155101009e+04  1.182152201350436513e+02
5.900000000000000000e+01  1.306538536183660835e+04  1.182932892916646210e+02
5.912500000000000000e+01  1.335915854352927454e+04  1.175798234080095170e+02
5.925000000000000000e+01  1.312461108776234141e+04  1.202524963491039358e+02
5.937500000000000000e+01  1.363078636866270972e+04  1.243279227087315064e+02
5.950000000000000000e+01  1.389029393747728318e+04  1.250667485083456825e+02
5.962500000000000000e+01  1.396835978344990326e+04  1.282743107133880471e+02
5.975000000000000000e+01  1.416702373341202656e+04  1.285893659445845572e+02
5.987500000000000000e+01  1.479624311328494332e+04  1.328206397449539224e+02
6.000000000000000000e+01  1.485803812910860688e+04  1.306608300048927447e+02
6.012500000000000000e+01  1.534122981965263716e+04  1.369861871371887219e+02
6.025000000000000000e+01  1.556325345851626662e+04  1.340216359530199384e+02
6.037500000000000000e+01  1.599745534114817019e+04  1.396638433184841972e+02
6.050000000000000000e+01  1.601905252388790177e+04  1.243506893011952599e+02
6.062500000000000000e+01  1.596876586430272982e+04  1.336403684894388562e+02
6.075000000000000000e+01  1.598540918136434084e+04  1.360127907096813829e+02
6.087500000000000000e+01  1.583618418406390083e+04  1.339215186099389427e+02
6.100000000000000000e+01  1.538597533323717289e+04  1.342435603950343364e+02
6.112500000000000000e+01  1.518598074113411531e+04  1.322070470116032936e+02
6.125000000000000000e+01  1.484312867910827663e+04  1.353295503479823481e+02
6.137500000000000000e+01  1.441029200716057130e+04  1.286992358885967747e+02
6.150000000000000000e+01  1.440990017854929465e+04  1.317635789286498493e+02
6.162500000000000000e+01  1.439852744182432434e+04  1.294488279974498823e+02
6.175000000000000000e+01  1.448787300887555102e+04  1.315720850038964613e+02
6.187500000000000000e+01  1.443426974690319548e+04  1.205117529962549554e+02
6.200000000000000000e+01  1.493823626373730440e+04  1.295601633076146868e+02
6.212500000000000000e+01  1.557654080793188223e+04  1.340764162976248031e+02
6.225000000000000000e+01  1.638655016014576540e+04  1.370312164300231075e+02
6.237500000000000000e+01  1.808571892906741414e+04  1.476741992473861558e+02
6.250000000000000000e+01  2.066724236930173720e+04  1.539077833146607475e+02
6.262500000000000000e+01  2.402089387167947643e+04  1.683160895593202326e+02
6.275000000000000000e+01  2.859070185882261649e+04  1.817491182086301080e+02
6.287500000000000000e+01  3.353142691304366599e+04  2.023088123399248559e+02
6.300000000000000000e+01  3.938678086914957385e+04  2.147255711182639573e+02
6.312500000000000000e+01  4.423525494524283567e+04  2.300583156447426063e+02
6.325000000000000000e+01  5.000478537672515813e+04  2.266049448225196272e+02
6.337500000000000000e+01  5.368804664206263988e+04  2.454940852597303262e+02
6.350000000000000000e+01  5.662212589324342844e+04  2.538725929197506730e+02
6.362500000000000000e+01  5.770046089677914279e+04  2.594019366190418623e+02
6.375000000000000000e+01  5.790049586485792679e+04  2.606755601059329592e+02
6.387500000000000000e+01  5.606274784161726711e+04  2.550468156491819798e+02
6.400000000000000000e+01  5.277053736615271191e+04  2.515650900286298395e+02
6.412500000000000000e+01  4.840109943619340629e+04  2.379157828907676731e+02
6.425000000000000000e+01  4.329550492808227864e+04  2.297401495341447060e+02
6.437500000000000000e+01  3.687575874905951059e+04  2.042954809690155855e+02
6.450000000000000000e+01  3.127500111485570233e+04  1.988652658380239586e+02
6.462500000000000000e+01  2.566597413979692283e+04  1.641582567529414121e+02
6.475000000000000000e+01  2.157422024855953714e+04  1.545160111730024255e+02
6.487500000000000000e+01  1.873989205720119571e+04  1.459119713518604158e+02
6.500000000000000000e+01  1.661089276255851655e+04  1.386457315319767929e+02
6.512500000000000000e+01  1.565795028150123289e+04  1.354005683793201058e+02
6.525000000000000000e+01  1.479551363958636830e+04  1.302117291364648963e+02
6.537500000000000000e+01  1.443408340468320603e+04  1.305303478704881002e+02
6.550000000000000000e+01  1.423669334242551486e+04  1.306228602543751265e+02
6.562500000000000000e+01  1.411404340411012163e+04  1.296558968160142342e+02
6.575000000000000000e+01  1.398368777432991010e+04  1.284421528695266943e+02
6.587500000000000000e+01  1.407363786781181443e+04  1.346836690449843275e+02
6.600000000000000000e+01  1.356203660450209645e+04  1.198304801213206900e+02
6.612500000000000000e+01  1.381372300562668170e+04  1.227947130250837375e+02
6.625000000000000000e+01  1.392536155812424659e+04  1.260949727593156666e+02
6.637500000000000000e+01  1.372004264866953235e+04  1.269449560022197971e+02
6.650000000000000000e+01  1.399642542705625965e+04  1.277480092863943639e+02
6.662500000000000000e+01  1.377809260706133500e+04  1.268429981883207489e+02
6.675000000000000000e+01  1.390261389677629450e+04  1.285352040179027142e+02
6.687500000000000000e+01  1.370478830968229522e+04  1.272402806139092206e+02
6.700000000000000000e+01  1.389024636701771669e+04  1.306222164725093364e+02
6.712500000000000000e+01  1.402310558643663535e+04  1.287499113997285178e+02
6.725000000000000000e+01  1.367815978088674092e+04  1.319730028697233877e+02
6.737500000000000000e+01  1.342403892923335843e+04  1.177773860975593863e+02
6.750000000000000000e+01  1.339262923487779335e+04  1.204686877792144202e+02
6.762500000000000000e+01  1.349576263357394964e+04  1.237518561833909558e+02
6.775000000000000000e+01  1.336503993384150090e+04  1.237132528647698564e+02
6.787500000000000000e+01  1.316688186487141138e+04  1.245655757362574718e+02
6.800000000000000000e+01  1.289530973328818072e+04  1.225570651824105681e+02
6.812500000000000000e+01  1.317151042455638344e+04  1.244646314896214250e+02
6.825000000000000000e+01  1.308240289774674420e+04  1.253584578724070440e+02
6.837500000000000000e+01  1.346656592891995570e+04  1.313451937594264507e+02
6.850000000000000000e+01  1.319247505912515226e+04  1.237163082644371315e+02
6.862500000000000000e+01  1.289600007631847802e+04  1.254583940135902651e+02
6.875000000000000000e+01  1.283568303620420011e+04  1.183678580788180597e+02
6.887500000000000000e+01  1.281133383248669998e+04  1.175599123347858921e+02
6.900000000000000000e+01  1.308311160468695743e+04  1.214631711802857410e+02
6.912500000000000000e+01  1.318816555376883116e+04  1.225335781981861345e+02
6.925000000000000000e+01  1.307487068367120992e+04  1.223554632690303805e+02
6.937500000000000000e+01  1.324965725101621501e+04  1.234892785511293027e+02
6.950000000000000000e+01  1.324316259622712641e+04  1.264296139337953093e+02
6.962500000000000000e+01  1.288034349493728041e+04  1.248285190061999117e+02
6.975000000000000000e+01  1.281371375970753070e+04  1.265710175811692011e+02
6.987500000000000000e+01  1.311379146015307742e+04  1.226498906097498605e+02
7.000000000000000000e+01  1.295293960893920121e+04  1.282909514644968567e+02
7.012500000000000000e+01  1.307338147208307964e+04  1.183172009425230868e+02
7.025000000000000000e+01  1.309825035259914330e+04  1.177730689916865146e+02
7.037500000000000000e+01  1.306887580779266500e+04  1.201256505618404873e+02
7.050000000000000000e+01  1.302647227099973497e+04  1.219399290101055158e+02
7.062500000000000000e+01  1.302694371957072872e+04  1.209886466749844516e+02
7.075000000000000000e+01  1.286846708862208106e+04  1.225012858687862263e+02
7.087500000000000000e+01  1.314806822311470933e+04  1.261673659695638889e+02
7.100000000000000000e+01  1.309937158284637371e+04  1.243113363504488689e+02
7.112500000000000000e+01  1.297178080129524642e+04  1.246537719244999778e+02
7.125000000000000000e+01  1.319797179086063079e+04  1.237026000157956389e+02
7.137500000000000000e+01  1.327567298929274693e+04  1.287081777878932485e+02
7.150000000000000000e+01  1.324901645307723811e+04  1.208256542999812524e+02
7.162500000000000000e+01  1.344071442880152972e+04  1.152828475906981964e+02
7.175000000000000000e+01  1.340894185209526950e+04  1.201207567223913060e+02
7.187500000000000000e+01  1.400522860794285953e+04  1.250716130649473996e+02
7.200000000000000000e+01  1.430666036313818950e+04  1.281421852266935275e+02
7.212500000000000000e+01  1.458905676859719460e+04  1.291977919218570321e+02
7.225000000000000000e+01  1.505545427423671936e+04  1.333438028859671931e+02
7.237500000000000000e+01  1.526340824098155463e+04  1.331893649051813497e+02
7.250000000000000000e+01  1.560384380468471863e+04  1.357420623205943002e+02
7.262500000000000000e+01  1.573232971383924269e+04  1.343319445254461755e+02
7.275000000000000000e+01  1.627833429958616580e+04  1.412945517279628973e+02
7.287500000000000000e+01  1.633246502174251327e+04  1.358917100090457950e+02
7.300000000000000000e+01  1.650058524706615935e+04  1.250403204743424084e+02
7.312500000000000000e+01  1.618002493198836783e+04  1.159091810560869220e+02
7.325000000000000000e+01  1.608157472523463002e+04  1.261581331303901408e+02
7.337500000000000000e+01  1.573333365801261971e+04  1.750310396780703286e+02
7.350000000000000000e+01  1.544663659590830684e+04  1.324100111803203390e+02
7.362500000000000000e+01  1.514727607348625315e+04  1.330501246023237059e+02
7.375000000000000000e+01  1.474721845968549133e+04  1.301754525901212105e+02
7.387500000000000000e+01  1.459051417610289172e+04  1.295974967259700747e+02
7.400000000000000000e+01  1.409669507896920913e+04  1.264442869715144866e+02
7.412500000000000000e+01  1.409434048165294553e+04  1.307162557449457836e+02
7.425000000000000000e+01  1.364354353325163356e+04  1.228002424996881388e+02
7.437500000000000000e+01  1.320182624670632140e+04  1.112307217508780752e+02
7.450000000000000000e+01  1.311457515100044293e+04  1.165245248873899584e+02
7.462500000000000000e+01  1.322226312185795359e+04  1.209342093458220688e+02
7.475000000000000000e+01  1.311717609588775304e+04  1.215804814302940997e+02
7.487500000000000000e+01  1.317566733424682752e+04  1.200121020829708982e+02
7.500000000000000000e+01  1.310837127754858921e+04  1.232913645634101698e+02
7.512500000000000000e+01  1.314484653143192372e+04  1.187308089927419417e+02
7.525000000000000000e+01  1.286240289761099848e+04  1.217668105359481387e+02
7.537500000000000000e+01  1.324394104520537257e+04  1.202257094472869596e+02
7.550000000000000000e+01  1.355863067886713179e+04  1.268936327558524084e+02
7.562500000000000000e+01  1.316963751385742034e+04  1.189304783175573732e+02
7.575000000000000000e+01  1.358484295915608345e+04  1.146614613138046934e+02
7.587500000000000000e+01  1.352559104999961710e+04  1.179487590142043558e+02
7.600000000000000000e+01  1.343379375602021537e+04  1.211087482032554874e+02
7.612500000000000000e+01  1.353392175939756453e+04  1.221654205458505942e+02
7.625000000000000000e+01  1.336958577907261315e+04  1.193285016965092069e+02
7.637500000000000000e+01  1.334241438746010499e+04  1.224229285598484580e+02
7.650000000000000000e+01  1.316519660384991948e+04  1.184085272486396576e+02
7.662500000000000000e+01  1.318484068715685862e+04  1.231367982415415128e+02
7.675000000000000000e+01  1.333375718867123760e+04  1.186172178837352362e+02
7.687500000000000000e+01  1.296450859576860239e+04  1.251164989874426396e+02
7.700000000000000000e+01  1.316217346980037291e+04  1.187807629684431845e+02
7.712500000000000000e+01  1.302206367784228496e+04  1.143210307327821909e+02
7.725000000000000000e+01  1.316799635976246282e+04  1.132230908117703336e+02
7.737500000000000000e+01  1.314313918800961437e+04  1.177301804448576945e+02
7.750000000000000000e+01  1.329996746678426280e+04  1.192882164978894508e+02
7.762500000000000000e+01  1.352937441188291996e+04  1.192397243017379367e+02
7.775000000000000000e+01  1.351827543130058257e+04  1.214172820981539331e+02
7.787500000000000000e+01  1.373282553778094007e+04  1.218303459126592259e+02
7.800000000000000000e+01  1.387991366077033854e+04  1.249074821953960708e+02
7.812500000000000000e+01  1.388492164830896400e+04  1.207384491157301198e+02
7.825000000000000000e+01  1.451110913158793119e+04  1.322200162159924162e+02
7.837500000000000000e+01  1.463347816710464940e+04  1.265794144722407424e+02
7.850000000000000000e+01  1.514028342790510578e+04  1.211571657130437814e+02
7.862500000000000000e+01  1.548256835108979976e+04  1.225959933590663979e+02
7.875000000000000000e+01  1.545657848406718585e+04  1.266762456049785612e+02
7.887500000000000000e+01  1.562997285849409127e+04  1.286210606009972537e+02
7.900000000000000000e+01  1.570290171390461546e+04  1.281965638646636307e+02
7.912500000000000000e+01  1.583926544613753322e+04  1.299567102594081405e+02
7.925000000000000000e+01  1.589226483229788028e+04  1.291456648662295095e+02
7.937500000000000000e+01  1.576172701818974383e+04  1.310432214432290152e+02
7.950000000000000000e+01  1.601303435709343285e+04  1.319566365897104276e+02
7.962500000000000000e+01  1.591337511256408652e+04  1.370570076895427007e+02
7.975000000000000000e+01  1.546257678885812493e+04  1.312415927307816332e+02
7.987500000000000000e+01  1.520076035448901166e+04  1.216839855234894969e+02
8.000000000000000000e+01  1.537592049468560253e+04  1.200255215936361992e+02
8.012500000000000000e+01  1.469836905781349378e+04  1.225374767384549273e+02
8.025000000000000000e+01  1.479963601462011138e+04  1.225540298793928713e+02
8.037500000000000000e+01  1.450105928184532604e+04  1.206162168994421933e+02
8.050000000000000000e+01  1.442297629258140296e+04  1.270266196948693249e+02
8.062500000000000000e+01  1.457701513059596618e+04  1.220742514947994835e+02
8.075000000000000000e+01  1.514841984912600674e+04  1.314919442355282229e+02
8.087500000000000000e+01  1.528801947786164237e+04  1.261192006810184836e+02
8.100000000000000000e+01  1.578511817922080263e+04  1.377838074478149224e+02
8.112500000000000000e+01  1.638656194801262609e+04  1.331756749610252939e+02
8.125000000000000000e+01  1.736349721001518265e+04  1.309939749669579498e+02
8.137500000000000000e+01  1.808835530365853629e+04  1.281734343869911754e+02
8.150000000000000000e+01  1.933718995374446240e+04  1.378312571008060843e+02
8.162500000000000000e+01  1.994915556669743819e+04  1.414016038677829101e+02
8.175000000000000000e+01  2.052966877251147889e+04  1.417019162150945988e+02
8.187500000000000000e+01  2.165569651708293532e+04  1.516945810163148280e+02
8.200000000000000000e+01  2.210409042229861370e+04  1.488803215735597121e+02
8.212500000000000000e+01  2.255542043283776002e+04  1.643843109096462172e+02
8.225000000000000000e+01  2.266208329333234724e+04  1.554532935705383068e+02
8.237500000000000000e+01  2.286335795492762918e+04  1.640310135560744698e+02
8.250000000000000000e+01  2.290616381944078603e+04  1.561388760573153718e+02
8.262500000000000000e+01  2.221421296740280013e+04  1.496967641321648728e+02
8.275000000000000000e+01  2.192962540218622235e+04  1.361196101500220834e+02
8.287500000000000000e+01  2.113181524523930057e+04  1.417381013733171642e+02
8.300000000000000000e+01  2.066855107671355290e+04  1.446272950667314490e+02
8.312500000000000000e+01  1.987056715884865116e+04  1.376056940292401976e+02
8.325000000000000000e+01  1.866429445322521860e+04  1.390266429432758173e+02
8.337500000000000000e+01  1.818156906298314425e+04  1.403030835537515486e+02
8.350000000000000000e+01  1.697472855249389249e+04  1.413775499928637771e+02
8.362500000000000000e+01  1.633224953548093981e+04  1.302667414902818450e+02
8.375000000000000000e+01  1.593441651668777195e+04  1.382364899053905560e+02
8.387500000000000000e+01  1.536735466456842732e+04  1.254530183209645031e+02
8.400000000000000000e+01  1.533149470881198977e+04  1.357993028394524515e+02
8.412500000000000000e+01  1.508716408300946932e+04  1.048554413399463812e+02
8.425000000000000000e+01  1.532565379915861377e+04  1.188606726847765600e+02
8.437500000000000000e+01  1.585160049918966615e+04  1.254591263399312311e+02
8.450000000000000000e+01  1.560575152944428191e+04  1.185182386463862514e+02
8.462500000000000000e+01  1.589446371554123652e+04  1.377396534630686347e+02
8.475000000000000000e+01  1.621070355437031503e+04  1.285067181347868086e+02
8.487500000000000000e+01  1.690390993522419012e+04  1.406609349533404156e+02
8.500000000000000000e+01  1.685978370881692535e+04  1.339217346981054106e+02
8.512500000000000000e+01  1.721563451258131681e+04  1.422876899509488737e+02
8.525000000000000000e+01  1.718796668978828893e+04  1.347464650878929149e+02
8.537500000000000000e+01  1.724651605337712681e+04  1.357572606891272926e+02
8.550000000000000000e+01  1.767359509767743657e+04  1.149746854058308969e+02
8.562500000000000000e+01  1.735599925803137376e+04  1.230581544754632404e+02
8.575000000000000000e+01  1.742132482932985295e+04  1.272307607408425270e+02
8.587500000000000000e+01  1.704730993679952735e+04  1.300980267663935308e+02
8.600000000000000000e+01  1.671866237661684499e+04  1.414045796442997869e+02
8.612500000000000000e+01  1.658529332341902773e+04  1.298502911568272111e+02
8.625000000000000000e+01  1.619879924500430207e+04  1.368755137087382252e+02
8.637500000000000000e+01  1.590038534532206177e+04  1.292244558206718921e+02
8.650000000000000000e+01  1.548374516780062550e+04  1.338141205846042112e+02
8.662500000000000000e+01  1.528833706247422924e+04  1.259248688734759725e+02
8.675000000000000000e+01  1.488378359515042757e+04  1.301346277392953255e+02
8.687500000000000000e+01  1.426438890917542085e+04  9.899382817271445845e+01
8.700000000000000000e+01  1.389149498168946957e+04  1.065241062237483476e+02
8.712500000000000000e+01  1.362357772564080733e+04  1.180205311888869630e+02
8.725000000000000000e+01  1.326630260571873805e+04  1.173136603450014661e+02
8.737500000000000000e+01  1.325734585334955773e+04  1.247146190362467877e+02
8.750000000000000000e+01  1.298302284857040104e+04  1.161097542367270279e+02
8.762500000000000000e+01  1.290182207808675776e+04  1.207413504975369847e+02
8.775000000000000000e+01  1.286619248371300819e+04  1.153281023418666962e+02
8.787500000000000000e+01  1.278084805771019091e+04  9.911208335974953343e+01
8.800000000000000000e+01  1.320176045276669356e+04  3.209457793666757084e+02
8.812500000000000000e+01  1.295090336504422339e+04  1.054488386327443266e+02
8.825000000000000000e+01  1.283498356456827605e+04  8.945379804071571073e+01
8.837500000000000000e+01  1.274700004627354429e+04  1.023731596390381355e+02
8.850000000000000000e+01  1.276299374838453878e+04  1.211082481232738388e+02
8.862500000000000000e+01  1.276140518618363603e+04  1.137237417944951261e+02
8.875000000000000000e+01  1.293750813275516339e+04  1.209377017622775696e+02
8.887500000000000000e+01  1.281963028296038829e+04  1.149292048087473432e+02
8.900000000000000000e+01  1.267709845292521823e+04  1.203365352130376777e+02
8.912500000000000000e+01  1.266472869586262641e+04  1.136455872684050235e+02
8.925000000000000000e+01  1.287493576054350342e+04  1.219237082076085272e+02
8.937500000000000000e+01  1.290332309462090052e+04  1.148426166148783238e+02
8.950000000000000000e+01  1.279704200727805255e+04  1.219485088321976036e+02
8.962500000000000000e+01  1.282106808309175540e+04  8.296557970875302601e+01
8.975000000000000000e+01  1.254523718947856651e+04  1.120601906446618869e+02
8.987500000000000000e+01  1.282395290669273527e+04  1.209430200647449851e+02
9.000000000000000000e+01  1.278762675766746361e+04  1.128515269778461203e+02
9.012500000000000000e+01  1.275721807360047569e+04  1.203082919422002419e+02
9.025000000000000000e+01  1.264041999949704041e+04  1.127306592023371792e+02
9.037500000000000000e+01  1.295436200490217198e+04  1.228633142441291568e+02
9.050000000000000000e+01  1.282704521516105160e+04  1.136115886560103547e+02
9.062500000000000000e+01  1.297019444192470655e+04  1.203785426375920622e+02
9.075000000000000000e+01  1.291932765891159761e+04  1.157764841351457221e+02
9.087500000000000000e+01  1.319495361936687914e+04  1.143502932306730031e+02
9.100000000000000000e+01  1.302393440184458814e+04  8.619831097683493226e+01
9.112500000000000000e+01  1.310211139891555649e+04  1.147763514817302166e+02
9.125000000000000000e+01  1.313460240191376397e+04  1.216740761898134906e+02
9.137500000000000000e+01  1.309640934995193493e+04  1.142148026017947302e+02
9.150000000000000000e+01  1.300635555330437819e+04  1.227123893290101933e+02
9.162500000000000000e+01  1.321413335394187015e+04  1.142978225566480575e+02
9.175000000000000000e+01  1.302786841972208822e+04  1.227352231129970050e+02
9.187500000000000000e+01  1.317579843149489716e+04  1.134034177558455241e+02
9.200000000000000000e+01  1.315099114245999408e+04  1.227190242051687505e+02
9.212500000000000000e+01  1.313091674646493811e+04  1.154012395766220322e+02
9.225000000000000000e+01  1.326874547906115731e+04  1.029451358369211533e+02
9.237500000000000000e+01  1.327723640594540484e+04  9.261485315372877380e+01
9.250000000000000000e+01  1.306806977484127674e+04  1.141718981272069726e+02
9.262500000000000000e+01  1.321672980907595593e+04  1.228732462552351024e+02
9.275000000000000000e+01  1.326187239754290749e+04  1.168503600200143069e+02
9.287500000000000000e+01  1.307128605130363940e+04  1.192147402939792897e+02
9.300000000000000000e+01  1.285090022705244701e+04  1.149741431873682842e+02
9.312500000000000000e+01  1.288080401218645238e+04  1.209265276992145743e+02
9.325000000000000000e+01  1.286190240411797458e+04  1.119188195706091875e+02
9.337500000000000000e+01  1.288096602730726954e+04  1.196070785239182044e+02
9.350000000000000000e+01  1.317554726234665759e+04  1.075134042138587489e+02
9.362500000000000000e+01  1.295015432056348618e+04  1.043959990842519687e+02
9.375000000000000000e+01  1.308872015719517185e+04  9.512844652465885531e+01
9.387500000000000000e+01  1.282976850600643957e+04  1.127763728369588847e+02
9.400000000000000000e+01  1.312031317185707303e+04  1.207106860418746663e+02
9.412500000000000000e+01  1.297913006506106831e+04  1.154624519619071776e+02
9.425000000000000000e+01  1.313259091432342757e+04  1.192001630448139196e+02
9.437500000000000000e+01  1.309676959850794083e+04  1.153150962934407175e+02
9.450000000000000000e+01  1.317075187924276725e+04  1.194334352427127044e+02
9.462500000000000000e+01  1.333428556621380631e+04  1.171704505841983632e+02
9.475000000000000000e+01  1.308715992973110224e+04  1.133820736947394323e+02
9.487500000000000000e+01  1.329841720022557274e+04  1.079283307136117713e+02
9.500000000000000000e+01  1.311086194976268598e+04  1.055989208439558098e+02
9.512500000000000000e+01  1.316104563102626162e+04  9.811026965925707088e+01
9.525000000000000000e+01  1.358090924341709251e+04  1.163826195892839053e+02
9.537500000000000000e+01  1.342873739328612828e+04  1.224901068381476392e+02
9.550000000000000000e+01  1.331143349423778818e+04  1.144141277009815241e+02
9.562500000000000000e+01  1.326576461001159987e+04  1.195356497979062596e+02
9.575000000000000000e+01  1.334913795707284044e+04  1.159043122101822689e+02
9.587500000000000000e+01  1.353571698808347719e+04  1.215200317200919784e+02
9.600000000000000000e+01  1.343583619335819276e+04  1.124308232769834319e+02
9.612500000000000000e+01  1.352512211122787994e+04  1.134763321032248768e+02
9.625000000000000000e+01  1.373598389579861032e+04  1.112964488488652961e+02
9.637500000000000000e+01  1.347861851117685910e+04  1.083362831202696981e+02
9.650000000000000000e+01  1.379929090077671572e+04  1.025409991576140527e+02
9.662500000000000000e+01  1.413980721522209387e+04  1.130967452308915000e+02
9.675000000000000000e+01  1.447439049121664175e+04  1.257217503584071636e+02
9.687500000000000000e+01  1.442719201851549406e+04  1.188561009758550568e+02
9.700000000000000000e+01  1.456166118717276186e+04  1.269595854525189367e+02
9.712500000000000000e+01  1.508965352666659419e+04  1.221283920075117777e+02
9.725000000000000000e+01  1.539593608117959229e+04  1.255149827218342153e+02
9.737500000000000000e+01  1.573695637870344581e+04  1.192741422336983703e+02
9.750000000000000000e+01  1.629715760454318661e+04  1.243080325920819718e+02
9.762500000000000000e+01  1.654408019175848312e+04  1.214442735334038730e+02
9.775000000000000000e+01  1.686231922037944969e+04  1.209491134440709175e+02
9.787500000000000000e+01  1.737515452397519402e+04  1.169573471705920724e+02
9.800000000000000000e+01  1.793776734864818718e+04  1.238236360147024158e+02
9.812500000000000000e+01  1.806475454991612787e+04  1.393684593556582740e+02
9.825000000000000000e+01  1.841884663303654452e+04  1.327676263665235865e+02
9.837500000000000000e+01  1.837481008601341091e+04  1.387934802262331004e+02
9.850000000000000000e+01  1.891451238202881359e+04  1.303612358311529533e+02
9.862500000000000000e+01  1.907351598592979644e+04  1.376655857730110881e+02
9.875000000000000000e+01  1.873689610731028370e+04  1.254743501111483113e+02
9.887500000000000000e+01  1.895362960444739292e+04  1.327182157597029004e+02
9.900000000000000000e+01  1.883009190805113394e+04  1.284380837735993168e+02
9.912500000000000000e+01  1.884226567751778202e+04  1.256933380518052701e+02
9.925000000000000000e+01  1.875715911085327025e+04  1.229931372183617810e+02
9.937500000000000000e+01  1.817736984011350069e+04  1.166823326472314619e+02
9.950000000000000000e+01  1.815212061807295322e+04  1.376623064568863697e+02
9.962500000000000000e+01  1.760147097566974480e+04  1.268066166287495520e+02
9.975000000000000000e+01  1.720702038462863129e+04  1.295960707640934970e+02
9.987500000000000000e+01  1.687077185424503114e+04  1.186993984759562721e+02
1.000000000000000000e+02  1.657059264197890298e+04  1.223596920881039267e+02
1.001250000000000000e+02  1.586603545622456113e+04  1.173235820058976913e+02
1.002500000000000000e+02  1.576726252708001812e+04  1.185073073705982551e+02
1.003750000000000000e+02  1.523993817370022589e+04  1.118499330182966105e+02
1.005000000000000000e+02  1.477784858448588602e+04  1.103654602667892846e+02
1.006250000000000000e+02  1.433787195361832710e+04  1.074306873299738356e+02
1.007500000000000000e+02  1.392334866359645093e+04  1.020580290110783324e+02
1.008750000000000000e+02  1.366222414440082139e+04  1.159190065534073568e+02
1.010000000000000000e+02  1.344442976306686251e+04  1.094200878445146969e+02
1.011250000000000000e+02  1.339269982320593954e+04  1.129150822143664783e+02
1.012500000000000000e+02  1.330525198338837072e+04  1.064420158671069743e+02
1.013750000000000000e+02  1.329819129934785087e+04  1.112011741312851854e+02
1.015000000000000000e+02  1.304791759071370507e+04  1.062669315880600180e+02
1.016250000000000000e+02  1.320609938090037940e+04  1.095762643928592723e+02
1.017500000000000000e+02  1.309455221311538298e+04  1.064632926656873337e+02
1.018750000000000000e+02  1.332702919297219341e+04  1.084933501143851515e+02
1.020000000000000000e+02  1.301967836078794790e+04  1.054683182469510143e+02
1.021250000000000000e+02  1.314440275445366569e+04  1.001407459732535727e+02
1.022500000000000000e+02  1.275706896249039892e+04  1.131472390821135434e+02
1.023750000000000000e+02  1.315044617648386884e+04  1.084778118894944754e+02
1.025000000000000000e+02  1.310880543843103442e+04  9.651359053630204698e+01
1.026250000000000000e+02  1.297661176073358001e+04  1.972047462929429287e+02
1.027500000000000000e+02  1.322102066845310037e+04  9.992153988197436831e+01
1.028750000000000000e+02  1.312268214459427691e+04  1.082119763000986694e+02
1.030000000000000000e+02  1.305877827445015100e+04  1.108309067058450808e+02
1.031250000000000000e+02  1.303878802758188795e+04  1.095619106870788073e+02
1.032500000000000000e+02  1.320549876086194854e+04  1.086955163718568969e+02
1.033750000000000000e+02  1.313622184149315217e+04  1.070642596640793727e+02
1.035000000000000000e+02  1.280281086905170014e+04  1.007096797033956506e+02
1.036250000000000000e+02  1.283780994393473156e+04  1.129037779003210176e+02
1.037500000000000000e+02  1.299521519197029556e+04  1.108477551286260763e+02
1.038750000000000000e+02  1.294484110177206458e+04  1.122080490236527055e+02
1.040000000000000000e+02  1.288299810654444627e+04  1.088928743528251175e+02
1.041250000000000000e+02  1.276740406337281456e+04  1.114133328781921648e+02
1.042500000000000000e+02  1.272734351729117589e+04  1.082286840189856036e+02
1.043750000000000000e+02  1.262906108975696225e+04  1.094543680954356972e+02
1.045000000000000000e+02  1.294038041879824232e+04  1.081939839376883867e+02
1.046250000000000000e+02  1.279782594842601611e+04  1.083007039071605959e+02
1.047500000000000000e+02  1.268366016595395740e+04  1.061775282186724922e+02
1.048750000000000000e+02  1.273758952868820415e+04  9.900013210547497522e+01
1.050000000000000000e+02  1.277613784909456263e+04  1.118649914924634032e+02
1.051250000000000000e+02  1.275124271710056564e+04  1.086008877675917148e+02
1.052500000000000000e+02  1.254983129287676275e+04  1.126009682972447763e+02
1.053750000000000000e+02  1.244460439311081063e+04  1.076698530363337198e+02
1.055000000000000000e+02  1.252634351702975255e+04  1.095687037181623680e+02
1.056250000000000000e+02  1.249820835990460546e+04  1.076472189806694786e+02
1.057500000000000000e+02  1.256762833059134027e+04  1.100857564396059018e+02
1.058750000000000000e+02  1.260886634735262123e+04  1.083314299749178389e+02
1.060000000000000000e+02  1.263091861823023828e+04  1.064848658844416320e+02
1.061250000000000000e+02  1.274692246554329904e+04  1.071965083210340879e+02
1.062500000000000000e+02  1.251902160567496321e+04  9.682582759942023642e+01
1.063750000000000000e+02  1.278162151261903455e+04  1.133204414075371744e+02
1.065000000000000000e+02  1.289864062154325802e+04  1.081592346739874131e+02
1.066250000000000000e+02  1.245528085694097172e+04  1.113144027698124034e+02
1.067500000000000000e+02  1.267508957299051872e+04  1.083657686071269808e+02
1.068750000000000000e+02  1.264321321706022536e+04  1.112784740541765416e+02
1.070000000000000000e+02  1.278780017043368753e+04  1.077883041991451591e+02
1.071250000000000000e+02  1.262616601876010100e+04  1.095569056699752082e+02
1.072500000000000000e+02  1.268054471753819416e+04  1.089915269650300189e+02
1.073750000000000000e+02  1.264505607445177702e+04  1.066381630825431728e+02
1.075000000000000000e+02  1.260768478014565335e+04  1.055970367223432476e+02
1.076250000000000000e+02  1.293868797668868683e+04  9.806821603433604650e+01
1.077500000000000000e+02  1.272243834866311408e+04  1.131744420937907165e+02
1.078750000000000000e+02  1.243147160518687087e+04  1.079041120207509579e+02
1.080000000000000000e+02  1.247782304068631129e+04  1.107794876647348730e+02
1.081250000000000000e+02  1.266398274717858476e+04  1.085767901693729414e+02
1.082500000000000000e+02  1.268632100030572110e+04  1.102658200472640573e+02
1.083750000000000000e+02  1.274403937581298123e+04  1.098216083185198926e+02
1.085000000000000000e+02  1.276585978072769103e+04  1.107773654424383381e+02
1.086250000000000000e+02  1.244465218214950073e+04  1.068850544595683800e+02
1.087500000000000000e+02  1.267057788304635687e+04  1.066450243926514787e+02
1.088750000000000000e+02  1.268870726557451417e+04  1.054904459034264903e+02
1.090000000000000000e+02  1.273825299736658963e+04  1.017109261152826747e+02
1.091250000000000000e+02  1.258064431111093108e+04  1.059706871023917643e+02
1.092500000000000000e+02  1.250754186972986463e+04  1.089013102995684790e+02
1.093750000000000000e+02  1.255750055930458075e+04  1.117160529100209772e+02
1.095000000000000000e+02  1.265907367124242774e+04  1.077104701099793971e+02
1.096250000000000000e+02  1.266975433921221520e+04  1.095399651402318568e+02
1.097500000000000000e+02  1.291139989892209996e+04  1.114626691642635166e+02
1.098750000000000000e+02  1.269729620582950884e+04  1.103945777850382939e+02
1.100000000000000000e+02  1.274139452901395452e+04  1.074047824393293666e+02
1.101250000000000000e+02  1.308755207523619174e+04  1.089910538426975961e+02
1.102500000000000000e+02  1.267929603453514028e+04  1.057305761223606453e+02
1.103750000000000000e+02  1.291488935069897343e+04  1.029475271675067773e+02
1.105000000000000000e+02  1.283938159119075681e+04  1.072895525497303737e+02
1.106250000000000000e+02  1.278495438379195730e+04  1.093650295476507495e+02
1.107500000000000000e+02  1.303699121920069047e+04  1.133865771983977879e+02
1.108750000000000000e+02  1.299950342220903985e+04  1.099522813105964190e+02
1.110000000000000000e+02  1.305082923246397877e+04  1.127882962239474978e+02
1.111250000000000000e+02  1.338538438764573038e+04  1.118052757039090039e+02
1.112500000000000000e+02  1.323084327717595261e+04  1.104374023162553442e+02
1.113750000000000000e+02  1.324277135691393596e+04  1.101234269318811556e+02
1.115000000000000000e+02  1.331153967662566356e+04  1.080383892967943069e+02
1.116250000000000000e+02  1.396435623802638293e+04  1.123566666068803812e+02
1.117500000000000000e+02  1.378038456515686994e+04  1.081621522558009048e+02
1.118750000000000000e+02  1.409854727086664025e+04  1.093995905879584853e+02
1.120000000000000000e+02  1.398748466753314824e+04  1.148329641107312398e+02
1.121250000000000000e+02  1.424736311037545420e+04  1.151642877462160897e+02
1.122500000000000000e+02  1.425067465899957824e+04  1.214948230249047896e+02
1.123750000000000000e+02  1.448720326856530119e+04  1.185764071929297927e+02
1.125000000000000000e+02  1.472676084851264022e+04  1.148287627934288508e+02
1.126250000000000000e+02  1.481250459405083166e+04  1.174449527499307067e+02
1.127500000000000000e+02  1.492904647807437868e+04  1.183392325932155700e+02
1.128750000000000000e+02  1.486532994409520688e+04  1.156913839759721014e+02
1.130000000000000000e+02  1.514032254376579840e+04  1.156491347643407295e+02
1.131250000000000000e+02  1.544432615562266074e+04  1.143146359577445139e+02
1.132500000000000000e+02  1.517199469667084850e+04  1.142399522986701186e+02
1.133750000000000000e+02  1.552333591439205520e+04  1.199974997028273123e+02
1.135000000000000000e+02  1.558932420009576708e+04  1.259828209477825567e+02
1.136250000000000000e+02  1.565017798014535583e+04  1.206432503051941154e+02
1.137500000000000000e+02  1.578581612194550507e+04  1.211251322103738488e+02
1.138750000000000000e+02  1.567977265490611353e+04  1.189809300246796653e+02
1.140000000000000000e+02  1.582510063070382057e+04  1.231795791636200335e+02
1.141250000000000000e+02  1.580225994928765977e+04  1.197381450248600743e+02
1.142500000000000000e+02  1.566821150602254966e+04  1.203184171763442549e+02
1.143750000000000000e+02  1.589652723049116685e+04  1.198688604119767973e+02
1.145000000000000000e+02  1.582047293546722904e+04  1.174564527587442910e+02
1.146250000000000000e+02  1.593801236413879269e+04  1.148314700492652491e+02
1.147500000000000000e+02  1.597898903336779404e+04  1.233466731268049017e+02
1.148750000000000000e+02  1.570663382314116097e+04  1.241951319091708399e+02
1.150000000000000000e+02  1.574667263770624595e+04  1.204565648788688605e+02
1.151250000000000000e+02  1.583200168539672995e+04  1.215152923136102459e+02
1.152500000000000000e+02  1.573228409452559936e+04  1.217036365703597909e+02
1.153750000000000000e+02  1.599993808961307877e+04  1.226381996393372873e+02
1.155000000000000000e+02  1.595490480763476808e+04  1.211279808615252591e+02
1.156250000000000000e+02  1.592085148359851155e+04  1.215686426280776828e+02
1.157500000000000000e+02  1.598808674724796583e+04  1.202587775146097329e+02
1.158750000000000000e+02  1.586924300329118159e+04  1.166824560990535957e+02
1.160000000000000000e+02  1.594364649626572827e+04  1.156247779737147710e+02
1.161250000000000000e+02  1.604487313759419885e+04  1.223730311218210147e+02
1.162500000000000000e+02  1.593344861661673895e+04  1.247124450418491222e+02
1.163750000000000000e+02  1.614396243470863374e+04  1.225491608480142531e+02
1.165000000000000000e+02  1.600895274390546183e+04  1.237144266381708775e+02
1.166250000000000000e+02  1.598118938497067211e+04  1.217987892399187189e+02
1.167500000000000000e+02  1.614701882796279642e+04  1.232632771400015770e+02
1.168750000000000000e+02  1.612082757113427579e+04  1.209905514731650555e+02
1.170000000000000000e+02  1.628161339145024613e+04  1.169373732111147035e+02
1.171250000000000000e+02  1.640954070278070867e+04  1.147688714544334374e+02
1.172500000000000000e+02  1.664940331081609111e+04  1.317074332482963257e+02
1.173750000000000000e+02  1.675036555169356870e+04  1.108518131291626787e+02
1.175000000000000000e+02  1.686567356526446747e+04  1.598372805169206856e+02
1.176250000000000000e+02  1.659455882062732053e+04  1.368370379472939646e+02
1.177500000000000000e+02  1.682996333449772646e+04  1.176402869157113287e+02
1.178750000000000000e+02  1.683608128171489079e+04  1.268598945995324812e+02
1.180000000000000000e+02  1.684576592877393341e+04  1.253764794666354447e+02
1.181250000000000000e+02  1.681284320748970276e+04  1.247382235462601727e+02
1.182500000000000000e+02  1.695233135335008410e+04  1.243774481154362661e+02
1.183750000000000000e+02  1.679532975044097475e+04  1.240225651854360223e+02
1.185000000000000000e+02  1.697009870361699723e+04  1.245513928108202322e+02
1.186250000000000000e+02  1.690157853094050006e+04  1.223788530163380130e+02
1.187500000000000000e+02  1.715687003156194260e+04  1.177117767418687890e+02
1.188750000000000000e+02  1.681695159994765709e+04  1.246932265322800646e+02
1.190000000000000000e+02  1.687872799052678238e+04  1.270694616017685519e+02
1.191250000000000000e+02  1.663550263289193390e+04  1.240764609883464686e+02
1.192500000000000000e+02  1.670007815871146522e+04  1.270454750212213213e+02
1.193750000000000000e+02  1.670608575182501954e+04  1.227393662251001132e+02
1.195000000000000000e+02  1.621360735678929086e+04  1.232199263726949141e+02
1.196250000000000000e+02  1.618099057540617105e+04  1.222085975046548043e+02
1.197500000000000000e+02  1.610810941845167690e+04  1.222946187525288053e+02
1.198750000000000000e+02  1.637821131166602572e+04  1.208534854459729644e+02
1.200000000000000000e+02  1.587092639120614876e+04  1.180002680837300773e+02
1.201250000000000000e+02  1.577399557264649957e+04  1.134996071558569355e+02
1.202500000000000000e+02  1.562437614847492841e+04  1.179576195150390987e+02
1.203750000000000000e+02  1.546374394298528568e+04  1.228364957593940545e+02
1.205000000000000000e+02  1.533328821305186284e+04  1.183552599333528121e+02
1.206250000000000000e+02  1.534540602686184684e+04  1.216052428960283436e+02
1.207500000000000000e+02  1.523029866220171971e+04  1.192088310938485733e+02
1.208750000000000000e+02  1.504439216746216880e+04  1.188917870912305972e+02
1.210000000000000000e+02  1.471188947351151546e+04  1.158739828147416659e+02
1.211250000000000000e+02  1.460778712854673176e+04  1.148618249346207421e+02
1.212500000000000000e+02  1.464818136313008108e+04  1.135790978216603406e+02
1.213750000000000000e+02  1.459180733883436551e+04  1.145663002279741107e+02
1.215000000000000000e+02  1.462164041015957082e+04  1.102962604388919488e+02
1.216250000000000000e+02  1.457058275513379158e+04  1.122575692159572327e+02
1.217500000000000000e+02  1.442565191749087535e+04  1.175305803663389810e+02
1.218750000000000000e+02  1.444429216809556783e+04  1.164786520537999337e+02
1.220000000000000000e+02  1.438036472119979408e+04  1.169367245468971532e+02
1.221250000000000000e+02  1.442724544493351641e+04  1.154697055803781893e+02
1.222500000000000000e+02  1.433105697728087034e+04  1.163589375139744959e+02
1.223750000000000000e+02  1.436431050126784066e+04  1.132206914008406500e+02
1.225000000000000000e+02  1.445005974774666356e+04  1.161368754242530201e+02
1.226250000000000000e+02  1.443901887692175296e+04  1.137989445114394726e+02
1.227500000000000000e+02  1.420198125266361239e+04  1.113375889992790064e+02
1.228750000000000000e+02  1.424850707042560134e+04  1.109850309108125259e+02
1.230000000000000000e+02  1.418339789380784532e+04  1.090966054921329516e+02
1.231250000000000000e+02  1.411080690328210585e+04  1.169301277394867924e+02
1.232500000000000000e+02  1.412804431021612982e+04  1.147749381742745811e+02
1.233750000000000000e+02  1.414431854728280086e+04  1.160696839247779764e+02
1.235000000000000000e+02  1.404652670844765453e+04  1.138051652350731757e+02
1.236250000000000000e+02  1.408323643986188472e+04  1.138078789294037563e+02
1.237500000000000000e+02  1.404336445058601385e+04  1.132639890832576413e+02
1.238750000000000000e+02  1.421537832215916205e+04  1.155798213541538786e+02
1.240000000000000000e+02  1.376177463421550783e+04  1.098834230506516860e+02
1.241250000000000000e+02  1.402263766307618789e+04  1.110357890781135097e+02
1.242500000000000000e+02  1.406327732143621688e+04  1.110897454761586403e+02
1.243750000000000000e+02  1.384490354468267287e+04  1.078707219139807165e+02
1.245000000000000000e+02  1.383251632062344288e+04  1.181016029129474418e+02
1.246250000000000000e+02  1.389511036365272957e+04  1.124124815436995135e+02
1.247500000000000000e+02  1.385991694322610601e+04  1.154391989267370207e+02
1.248750000000000000e+02  1.350424116534902532e+04  1.094331123760640736e+02
1.250000000000000000e+02  1.385191486394616186e+04  1.148992610736341646e+02
1.251250000000000000e+02  1.366387004301504749e+04  1.107739760924166603e+02
1.252500000000000000e+02  1.379671773285077870e+04  1.138166402135009889e+02
1.253750000000000000e+02  1.365617247416178361e+04  1.112392259655205180e+02
1.255000000000000000e+02  1.358480023059814994e+04  1.105405561191322761e+02
1.256250000000000000e+02  1.360909868479149736e+04  1.090299057478895861e+02
1.257500000000000000e+02  1.348520705379615538e+04  1.052376260396211904e+02
1.258750000000000000e+02  1.348531611614912254e+04  1.138904016652606828e+02
1.260000000000000000e+02  1.355622376925406024e+04  1.114088923722620308e+02
1.261250000000000000e+02  1.348042205627081785e+04  1.138084881519105949e+02
1.262500000000000000e+02  1.340118245437369296e+04  1.102017266450301207e+02
1.263750000000000000e+02  1.330758636138478687e+04  1.127518652312085408e+02
1.265000000000000000e+02  1.319130437819450890e+04  1.090078769429219960e+02
1.266250000000000000e+02  1.331418783511326910e+04  1.107977861954323231e+02
1.267500000000000000e+02  1.329311691905855514e+04  1.103666903083420436e+02
1.268750000000000000e+02  1.312290222914364494e+04  1.086096311755335648e+02
1.270000000000000000e+02  1.338302000946770931e+04  1.092063966095774816e+02
1.271250000000000000e+02  1.318584442793249036e+04  1.047023323081756701e+02
1.272500000000000000e+02  1.352215475209629221e+04  1.119830383916761463e+02
1.273750000000000000e+02  1.323966879893537043e+04  1.110657316916114183e+02
1.275000000000000000e+02  1.321488501580619231e+04  1.122569168614692643e+02
1.276250000000000000e+02  1.322289726173328381e+04  1.089088445528676345e+02
1.277500000000000000e+02  1.309358872420141597e+04  1.115773278295411188e+02
1.278750000000000000e+02  1.307593631714282492e+04  1.093808986657672477e+02
1.280000000000000000e+02  1.291468578566889846e+04  1.101889120622140581e+02
1.281250000000000000e+02  1.315883665453628964e+04  1.090565420158945926e+02
1.282500000000000000e+02  1.316956448509366419e+04  1.098264817365150208e+02
1.283750000000000000e+02  1.303819647991534475e+04  1.074787561734873691e+02
1.285000000000000000e+02  1.301924317453759795e+04  1.034087779659093371e+02
1.286250000000000000e+02  1.299446227585754059e+04  1.113406663640688095e+02
1.287500000000000000e+02  1.290963337584253713e+04  1.081715796034341821e+02
1.288750000000000000e+02  1.327343309792951550e+04  1.135352655634970631e+02
1.290000000000000000e+02  1.320672487657380589e+04  1.103707393078908581e+02
1.291250000000000000e+02  1.312090600072650341e+04  1.118060532503237567e+02
1.292500000000000000e+02  1.311847353774700787e+04  1.090445645441688640e+02
1.293750000000000000e+02  1.304678492750906662e+04  1.106255771938647143e+02
1.295000000000000000e+02  1.311276995365234689e+04  1.104999985082229301e+02
1.296250000000000000e+02  1.323729571594796471e+04  1.085352432003925429e+02
1.297500000000000000e+02  1.302058463276039583e+04  1.081711080852746676e+02
1.298750000000000000e+02  1.310388524399015296e+04  1.031514234804676562e+02
1.300000000000000000e+02  1.302794841756498136e+04  1.121682787397076595e+02
1.301250000000000000e+02  1.320077833482326059e+04  1.104252087445209440e+02
1.302500000000000000e+02  1.298324175863858000e+04  1.118123761420100237e+02
1.303750000000000000e+02  1.291162744985160316e+04  1.092129162326043854e+02
1.305000000000000000e+02  1.291518943241958368e+04  1.107671992146910185e+02
1.306250000000000000e+02  1.314264288410861991e+04  1.113543402243767133e+02
1.307500000000000000e+02  1.310710660324565106e+04  1.104758120666208185e+02
1.308750000000000000e+02  1.319933328688263282e+04  1.107117815778740209e+02
1.310000000000000000e+02  1.328730499940060145e+04  1.101439480125753221e+02
1.311250000000000000e+02  1.313384848626618077e+04  1.108193682050741984e+02
1.312500000000000000e+02  1.314342876305596656e+04  1.051541601860691486e+02
1.313750000000000000e+02  1.308626985063382381e+04  1.170940028040837433e+02
1.315000000000000000e+02  1.303529264582624091e+04  1.121650134997247221e+02
1.316250000000000000e+02  1.314168690331125072e+04  1.164761251035627652e+02
1.317500000000000000e+02  1.335662061905379232e+04  1.232294816105678308e+02
1.318750000000000000e+02  1.286351187214519086e+04  1.373050474283921289e+02
1.320000000000000000e+02  1.359053202929455438e+04  3.752057980410197047e+02
