# DMC at SINQ, PSI: Sample name = Unknown, wavelength = 2.450 AA, T = 0.0 K
# Filelist='dmc:2021:570-573'
#   0.000   0.125 132.000     567., sample="Unknown"
0.000000000000000000e+00  1.508316255924317811e+05  3.780253115516415164e+03
1.250000000000000000e-01  1.501129835782342416e+05  2.629921084482858078e+03
2.500000000000000000e-01  1.456295916255707853e+05  1.674013939231337190e+03
3.750000000000000000e-01  1.458089869754123210e+05  1.676962669238832177e+03
5.000000000000000000e-01  1.495046668279343285e+05  1.285446495152570151e+03
6.250000000000000000e-01  1.472917331065132166e+05  1.266092062994924618e+03
7.500000000000000000e-01  1.455175932010937540e+05  1.049690842766881815e+03
8.750000000000000000e-01  1.453093823440284759e+05  1.003806085351613774e+03
1.000000000000000000e+00  1.461048481696219533e+05  1.012738418043365073e+03
1.125000000000000000e+00  1.469349223730223021e+05  8.552273157046669212e+02
1.250000000000000000e+00  1.453023265633673000e+05  8.906211738120861128e+02
1.375000000000000000e+00  1.489507188493555586e+05  7.878454437971181505e+02
1.500000000000000000e+00  1.469608331280933344e+05  8.301547135649522033e+02
1.625000000000000000e+00  1.478755738200886408e+05  7.446368212443696848e+02
1.750000000000000000e+00  1.480068477229138662e+05  7.793072882625041302e+02
1.875000000000000000e+00  1.475979199335487792e+05  6.958683229312491676e+02
2.000000000000000000e+00  1.495946974823651835e+05  7.288030174815031614e+02
2.125000000000000000e+00  1.469561915964093059e+05  6.521410529211389075e+02
2.250000000000000000e+00  1.476213728220630437e+05  6.525534212011377804e+02
2.375000000000000000e+00  1.454494377739188785e+05  6.273744855105752549e+02
2.500000000000000000e+00  1.469424128510016599e+05  6.090278829402823249e+02
2.625000000000000000e+00  1.466921399480208638e+05  6.252586968336336213e+02
2.750000000000000000e+00  1.457850613449505763e+05  5.786169399777118088e+02
2.875000000000000000e+00  1.448936612368251372e+05  5.884737465676589636e+02
3.000000000000000000e+00  1.453228034132611065e+05  5.610626319829646036e+02
3.125000000000000000e+00  1.442673633468469488e+05  5.499022790643653025e+02
3.250000000000000000e+00  1.435708535714894824e+05  5.509540826837748000e+02
3.375000000000000000e+00  1.417017281113300414e+05  5.207054090719757369e+02
3.500000000000000000e+00  1.432288224044779781e+05  5.097272505915407805e+02
3.625000000000000000e+00  1.419895596732076083e+05  5.010515560010944114e+02
3.750000000000000000e+00  1.421341625080256490e+05  5.011875107127671072e+02
3.875000000000000000e+00  1.410364644640351471e+05  4.823542772166495070e+02
4.000000000000000000e+00  1.411636754188798659e+05  4.871305482335085344e+02
4.125000000000000000e+00  1.398060770574953640e+05  4.698043718115359866e+02
4.250000000000000000e+00  1.397436961154072487e+05  4.678099758936405692e+02
4.375000000000000000e+00  1.384924981859736436e+05  4.622944704027053149e+02
4.500000000000000000e+00  1.391716756155184994e+05  4.408163903245226152e+02
4.625000000000000000e+00  1.380971447777048452e+05  4.517346753985196415e+02
4.750000000000000000e+00  1.389075880529073474e+05  4.268889393185269796e+02
4.875000000000000000e+00  1.374058656255958776e+05  4.414408486943000298e+02
5.000000000000000000e+00  1.368419336137702339e+05  4.068983978575475362e+02
5.125000000000000000e+00  1.357641105522799480e+05  4.238078274245939951e+02
5.250000000000000000e+00  1.348621512868983846e+05  4.073734596223442850e+02
5.375000000000000000e+00  1.358612324418927892e+05  4.192449246615628908e+02
5.500000000000000000e+00  1.346361418142808543e+05  3.984643403348554216e+02
5.625000000000000000e+00  1.340766302989271353e+05  3.854527683850021162e+02
5.750000000000000000e+00  1.322136513884148153e+05  3.928723294688748524e+02
5.875000000000000000e+00  1.329522796249703097e+05  3.777647971113701146e+02
6.000000000000000000e+00  1.324819930171153101e+05  3.903440633107563826e+02
6.125000000000000000e+00  1.311432619696012116e+05  3.669868757244772723e+02
6.250000000000000000e+00  1.314405188854618755e+05  3.741086846425956196e+02
6.375000000000000000e+00  1.313740247909063473e+05  3.597317757158904783e+02
6.500000000000000000e+00  1.306626873173940985e+05  3.647235452840062635e+02
6.625000000000000000e+00  1.290790868284735043e+05  3.483728811520716704e+02
6.750000000000000000e+00  1.281969801784486917e+05  3.521522982823597090e+02
6.875000000000000000e+00  1.266500110200223862e+05  3.366910839858207396e+02
7.000000000000000000e+00  1.256230206314512179e+05  3.433002172870542950e+02
7.125000000000000000e+00  1.245947059713628114e+05  3.335310150616966780e+02
7.250000000000000000e+00  1.199598242065896629e+05  3.358493574582589076e+02
7.375000000000000000e+00  1.165633990823556524e+05  3.368068584511734116e+02
7.500000000000000000e+00  1.138366323639858310e+05  3.332590624852961696e+02
7.625000000000000000e+00  1.104362842272742564e+05  3.243052186408387456e+02
7.750000000000000000e+00  1.053975381205124140e+05  3.195156024569697024e+02
7.875000000000000000e+00  1.036216001613076369e+05  3.112026387237191898e+02
8.000000000000000000e+00  1.005073653394336870e+05  3.096259398644035628e+02
8.125000000000000000e+00  9.995600982512060727e+04  3.055772942451364997e+02
8.250000000000000000e+00  9.701928718310374825e+04  2.979530220889133147e+02
8.375000000000000000e+00  9.629487560870856396e+04  3.067462548934975644e+02
8.500000000000000000e+00  9.379471528361857054e+04  2.917511816960553119e+02
8.625000000000000000e+00  9.077353066433298227e+04  2.925029836860069281e+02
8.750000000000000000e+00  9.148173203194089001e+04  2.900836498255480365e+02
8.875000000000000000e+00  8.747873575788371090e+04  2.867924058028733043e+02
9.000000000000000000e+00  8.790351787274949311e+04  2.823809556456221230e+02
9.125000000000000000e+00  8.540431546392528981e+04  2.660041412773690013e+02
9.250000000000000000e+00  8.497163564381770266e+04  2.832655395993587604e+02
9.375000000000000000e+00  8.311369714883567940e+04  2.590368410669619834e+02
9.500000000000000000e+00  8.075009571886211052e+04  2.789132957822738490e+02
9.625000000000000000e+00  8.138661820952157723e+04  2.596860475841430684e+02
9.750000000000000000e+00  7.852641295551788062e+04  2.664102037686320159e+02
9.875000000000000000e+00  7.912387523349013645e+04  2.583954455876054226e+02
1.000000000000000000e+01  7.730744204146991251e+04  2.567234543504388284e+02
1.012500000000000000e+01  7.658429043314637966e+04  2.593679540978905038e+02
1.025000000000000000e+01  7.581472581806147355e+04  2.541786657096658928e+02
1.037500000000000000e+01  7.586981454503806890e+04  2.594495675133160262e+02
1.050000000000000000e+01  7.484252360025497910e+04  2.443525698355598479e+02
1.062500000000000000e+01  7.483257193517868291e+04  2.561152788253062909e+02
1.075000000000000000e+01  7.393776752322618267e+04  2.470115014962971429e+02
1.087500000000000000e+01  7.398148165922409680e+04  2.545884085856138483e+02
1.100000000000000000e+01  7.357354087596533645e+04  2.509376786480700048e+02
1.112500000000000000e+01  7.374838202790879586e+04  2.516643217643010644e+02
1.125000000000000000e+01  7.284222730437004066e+04  2.546790916996006331e+02
1.137500000000000000e+01  7.359783440422735293e+04  2.539170062430715404e+02
1.150000000000000000e+01  7.322638839675264899e+04  2.532920900530434096e+02
1.162500000000000000e+01  7.223295884178810229e+04  2.521024413623449050e+02
1.175000000000000000e+01  7.247205799280248175e+04  2.530587170436011775e+02
1.187500000000000000e+01  7.220458561455864401e+04  2.461068724819832596e+02
1.200000000000000000e+01  7.183851255995748215e+04  2.534147930781215052e+02
1.212500000000000000e+01  7.199396186205833510e+04  2.433339606057176638e+02
1.225000000000000000e+01  7.157802115796555881e+04  2.586624276431036833e+02
1.237500000000000000e+01  7.169109868893057865e+04  2.440407519469434590e+02
1.250000000000000000e+01  7.106091610796257737e+04  2.584152912944094282e+02
1.262500000000000000e+01  7.047292999405603041e+04  2.480918344760882235e+02
1.275000000000000000e+01  7.011767947889317293e+04  2.511549615317591702e+02
1.287500000000000000e+01  7.017817551804722461e+04  2.449518669556479722e+02
1.300000000000000000e+01  6.990061989211846958e+04  2.553295048995365164e+02
1.312500000000000000e+01  7.003685418624107842e+04  2.480365881415015963e+02
1.325000000000000000e+01  6.996105570499999158e+04  2.465772582409199174e+02
1.337500000000000000e+01  6.958185582742546103e+04  2.486747940519486804e+02
1.350000000000000000e+01  6.905925223392923363e+04  2.412963527785621238e+02
1.362500000000000000e+01  6.935810782451764680e+04  2.554249630523821679e+02
1.375000000000000000e+01  6.972553300776770629e+04  2.431617070827815041e+02
1.387500000000000000e+01  7.034131672176453867e+04  2.563192870809493229e+02
1.400000000000000000e+01  6.983082195412981673e+04  2.486058847401719731e+02
1.412500000000000000e+01  7.212004563202107965e+04  2.569610511004565865e+02
1.425000000000000000e+01  7.263246378926055331e+04  2.523817337282388280e+02
1.437500000000000000e+01  7.408665247143419401e+04  2.649468809672669636e+02
1.450000000000000000e+01  7.356380450496049889e+04  2.351361590751871518e+02
1.462500000000000000e+01  7.419962472287962737e+04  2.670157075887999554e+02
1.475000000000000000e+01  7.378006870865634119e+04  2.576574604553770200e+02
1.487500000000000000e+01  7.237731558981077978e+04  2.560092841822087166e+02
1.500000000000000000e+01  7.143709267775465560e+04  2.567421584221505100e+02
1.512500000000000000e+01  7.033915436623225105e+04  2.514374686394106106e+02
1.525000000000000000e+01  7.012347470858537417e+04  2.552172858500057373e+02
1.537500000000000000e+01  6.910504484739026520e+04  2.506373675662082121e+02
1.550000000000000000e+01  6.820701477318727120e+04  2.559439235736513467e+02
1.562500000000000000e+01  6.788178670903549937e+04  2.424024900867405563e+02
1.575000000000000000e+01  6.648105142055530450e+04  2.520446678015257760e+02
1.587500000000000000e+01  6.658795534782136383e+04  2.432843577208271313e+02
1.600000000000000000e+01  6.590366948471771320e+04  2.425980470963378366e+02
1.612500000000000000e+01  6.632884273784465040e+04  2.413362464615424585e+02
1.625000000000000000e+01  6.583319430714510963e+04  2.464280397013109223e+02
1.637500000000000000e+01  6.573070799284554960e+04  2.421517473835390035e+02
1.650000000000000000e+01  6.568305740152005455e+04  2.472172055013882073e+02
1.662500000000000000e+01  6.470968317454880889e+04  2.399833772441780013e+02
1.675000000000000000e+01  6.540165147240238002e+04  2.456799725933029492e+02
1.687500000000000000e+01  6.466658194324743090e+04  2.404843015447502808e+02
1.700000000000000000e+01  6.459183782952026377e+04  2.450160944017625582e+02
1.712500000000000000e+01  6.462831396834254701e+04  2.449202130541050053e+02
1.725000000000000000e+01  6.453654693702198711e+04  2.436556071310210427e+02
1.737500000000000000e+01  6.416182438516314141e+04  2.386501017526539101e+02
1.750000000000000000e+01  6.341889273964834865e+04  2.348509640897731288e+02
1.762500000000000000e+01  6.384774696162149485e+04  2.439675099086138630e+02
1.775000000000000000e+01  6.380532125803460804e+04  2.359828210692634229e+02
1.787500000000000000e+01  6.405776942231703288e+04  2.452808854225101527e+02
1.800000000000000000e+01  6.367144829717790708e+04  2.381027307246948226e+02
1.812500000000000000e+01  6.338726523657401412e+04  2.444889424110770051e+02
1.825000000000000000e+01  6.380477768678864231e+04  2.400695490673033987e+02
1.837500000000000000e+01  6.322790469875231793e+04  2.452407772125560257e+02
1.850000000000000000e+01  6.330168874940587557e+04  2.416728794165841805e+02
1.862500000000000000e+01  6.318672837206966506e+04  2.433212105321591423e+02
1.875000000000000000e+01  6.250748856002541288e+04  2.297789927979164588e+02
1.887500000000000000e+01  6.257159836903497489e+04  2.423854221144207770e+02
1.900000000000000000e+01  6.244695873862600274e+04  2.340726141597442336e+02
1.912500000000000000e+01  6.284731471005085041e+04  2.433822662160513914e+02
1.925000000000000000e+01  6.264124302266341692e+04  2.401264057895889721e+02
1.937500000000000000e+01  6.249534541752933728e+04  2.418234726934169032e+02
1.950000000000000000e+01  6.248704305163837125e+04  2.379427381706876474e+02
1.962500000000000000e+01  6.209158567249255429e+04  2.422681610903380829e+02
1.975000000000000000e+01  6.207179512544855243e+04  2.422739450162730463e+02
1.987500000000000000e+01  6.204986890464763565e+04  2.414117673700662863e+02
2.000000000000000000e+01  6.169782692103179579e+04  2.418184207643083425e+02
2.012500000000000000e+01  6.186412319703592948e+04  2.328946842284418324e+02
2.025000000000000000e+01  6.106417590941579692e+04  2.390028504084976078e+02
2.037500000000000000e+01  6.152020411871064425e+04  2.327240786370084606e+02
2.050000000000000000e+01  6.164013937237136270e+04  2.416201595359906378e+02
2.062500000000000000e+01  6.123084969819949765e+04  2.403743328994041804e+02
2.075000000000000000e+01  6.102392986936602392e+04  2.385239958400815965e+02
2.087500000000000000e+01  6.132575191356037249e+04  2.379363283285148611e+02
2.100000000000000000e+01  6.075358954331673158e+04  2.410591024847154529e+02
2.112500000000000000e+01  6.056131420449076541e+04  2.380285599716456204e+02
2.125000000000000000e+01  6.068235949925993918e+04  2.409833331179330003e+02
2.137500000000000000e+01  6.087772437428514968e+04  2.407852256942931035e+02
2.150000000000000000e+01  6.025181853863712604e+04  2.348004176699161292e+02
2.162500000000000000e+01  6.041482098512123775e+04  2.301454366152790101e+02
2.175000000000000000e+01  5.997878224214123475e+04  2.406865622421919397e+02
2.187500000000000000e+01  6.040137310648592393e+04  2.337104251466830362e+02
2.200000000000000000e+01  6.023085206212864432e+04  2.424920709010211795e+02
2.212500000000000000e+01  6.036054383571798826e+04  2.372467875264511861e+02
2.225000000000000000e+01  6.015769563099506195e+04  2.405692046885342847e+02
2.237500000000000000e+01  5.973015266871301719e+04  2.368715336467002714e+02
2.250000000000000000e+01  6.024004992486548872e+04  2.435895683470188544e+02
2.262500000000000000e+01  5.924211908824190323e+04  2.356804669228399973e+02
2.275000000000000000e+01  5.941819672010998329e+04  2.416812001089404021e+02
2.287500000000000000e+01  5.975437586291544721e+04  2.324422022754060038e+02
2.300000000000000000e+01  5.994337104314249882e+04  2.383194053602132385e+02
2.312500000000000000e+01  5.902215540017212334e+04  2.320292779375119778e+02
2.325000000000000000e+01  5.887306432098348887e+04  2.335791371255551212e+02
2.337500000000000000e+01  5.928444047970729298e+04  2.366102359356699480e+02
2.350000000000000000e+01  5.908231902008779434e+04  2.372037981498785939e+02
2.362500000000000000e+01  5.900796698444240610e+04  2.384651812978131318e+02
2.375000000000000000e+01  5.891010882181732450e+04  2.356027418638037148e+02
2.387500000000000000e+01  5.921315456909212662e+04  2.447263380688960410e+02
2.400000000000000000e+01  5.853024672839267441e+04  2.326588992776169960e+02
2.412500000000000000e+01  5.875047919241291675e+04  2.403068509202822156e+02
2.425000000000000000e+01  5.855465414851967944e+04  2.362477209754130740e+02
2.437500000000000000e+01  5.844021747069169942e+04  2.309240727250234499e+02
2.450000000000000000e+01  5.887634299072259455e+04  2.335572216419232348e+02
2.462500000000000000e+01  5.909452532323362539e+04  2.390082798738047245e+02
2.475000000000000000e+01  5.853399711242241028e+04  2.388048923224879161e+02
2.487500000000000000e+01  5.834270762862714764e+04  2.350637440677149073e+02
2.500000000000000000e+01  5.871036230846976105e+04  2.376197842464162591e+02
2.512500000000000000e+01  5.850546615627309802e+04  2.385317199910581962e+02
2.525000000000000000e+01  5.825843439909626613e+04  2.379104463284032249e+02
2.537500000000000000e+01  5.785171034004376997e+04  2.342981127613226136e+02
2.550000000000000000e+01  5.834856254905671085e+04  2.392138259599735193e+02
2.562500000000000000e+01  5.748253420841652405e+04  2.393693064962983783e+02
2.575000000000000000e+01  5.857345187606631953e+04  2.325552121093905669e+02
2.587500000000000000e+01  5.767985332328924414e+04  2.286633692796036144e+02
2.600000000000000000e+01  5.797513706530864874e+04  2.388884744818289505e+02
2.612500000000000000e+01  5.737190631787136954e+04  2.333251843367926313e+02
2.625000000000000000e+01  5.775937300372980826e+04  2.392600287713170246e+02
2.637500000000000000e+01  5.755404971469693555e+04  2.365037434753002117e+02
2.650000000000000000e+01  5.762243645883570571e+04  2.341524382188947584e+02
2.662500000000000000e+01  5.759630166387863574e+04  2.405343551289256538e+02
2.675000000000000000e+01  5.762712056070172548e+04  2.381916473418084195e+02
2.687500000000000000e+01  5.790910724786373612e+04  2.389208344535902313e+02
2.700000000000000000e+01  5.743444507747518219e+04  2.358211974334607817e+02
2.712500000000000000e+01  5.791024123730002611e+04  2.326012644678194476e+02
2.725000000000000000e+01  5.759817903316803131e+04  2.336760305625686840e+02
2.737500000000000000e+01  5.772091541100657923e+04  2.310741452513197487e+02
2.750000000000000000e+01  5.801162223785767856e+04  2.446920206525985577e+02
2.762500000000000000e+01  5.786713946896654670e+04  2.352517122169962818e+02
2.775000000000000000e+01  5.881237296498566866e+04  2.392110993142138398e+02
2.787500000000000000e+01  5.928817589181179937e+04  2.431497889645210648e+02
2.800000000000000000e+01  6.053100000000000000e+04  2.460304859158718216e+02
2.812500000000000000e+01  6.223893739789845131e+04  2.496115920061683653e+02
2.825000000000000000e+01  6.571075000470819941e+04  2.565143661449114347e+02
2.837500000000000000e+01  7.215646187834614830e+04  2.655594355257651955e+02
2.850000000000000000e+01  8.164913682062900625e+04  2.791264439171333720e+02
2.862500000000000000e+01  8.917124932418949902e+04  2.926953121835867933e+02
2.875000000000000000e+01  9.636530390773585532e+04  3.049977850491274012e+02
2.887500000000000000e+01  9.974457868474762654e+04  3.144561498446213932e+02
2.900000000000000000e+01  9.989343256263974763e+04  3.165594167275588688e+02
2.912500000000000000e+01  9.243232015696620510e+04  2.737585041883850181e+02
2.925000000000000000e+01  8.765289332179563644e+04  3.032645315100979815e+02
2.937500000000000000e+01  7.905710733572983008e+04  2.906904235515179948e+02
2.950000000000000000e+01  7.124300106125949242e+04  2.682786138274718155e+02
2.962500000000000000e+01  6.605426612137205666e+04  2.612494067880954844e+02
2.975000000000000000e+01  6.237423772502825886e+04  2.491841718822518033e+02
2.987500000000000000e+01  5.950275739035985316e+04  2.408110846612285343e+02
3.000000000000000000e+01  5.772378886933340982e+04  2.400889248454190579e+02
3.012500000000000000e+01  5.757375860383613326e+04  2.357205889471413229e+02
3.025000000000000000e+01  5.693290673827486171e+04  2.378821488028967508e+02
3.037500000000000000e+01  5.657018471306304127e+04  2.371858167971393243e+02
3.050000000000000000e+01  5.652242579700735951e+04  2.394051091772639381e+02
3.062500000000000000e+01  5.579924513585025124e+04  2.363568629235663252e+02
3.075000000000000000e+01  5.669271041503991000e+04  2.392140074507532859e+02
3.087500000000000000e+01  5.577910621302075015e+04  2.365965311071455233e+02
3.100000000000000000e+01  5.603367534954134317e+04  2.403440386056795717e+02
3.112500000000000000e+01  5.541670198155740218e+04  2.351122141259437228e+02
3.125000000000000000e+01  5.540672310133970313e+04  2.320935851457560659e+02
3.137500000000000000e+01  5.588364674323985673e+04  2.296706745622433914e+02
3.150000000000000000e+01  5.556907758059055777e+04  2.350426676309627396e+02
3.162500000000000000e+01  5.527571439453380299e+04  2.358916656478710649e+02
3.175000000000000000e+01  5.529750161523133283e+04  2.312994479361167635e+02
3.187500000000000000e+01  5.545861406319211528e+04  2.379037036327214025e+02
3.200000000000000000e+01  5.585350736594602495e+04  2.379050850920209825e+02
3.212500000000000000e+01  5.646105740242162574e+04  2.376049562561354946e+02
3.225000000000000000e+01  5.632613698149159609e+04  2.421605012980595006e+02
3.237500000000000000e+01  5.731387228010629042e+04  2.408571143713822664e+02
3.250000000000000000e+01  5.856126778291197843e+04  2.434417078993131156e+02
3.262500000000000000e+01  6.032687894839418004e+04  2.418071218196247969e+02
3.275000000000000000e+01  6.201851072354146163e+04  2.482031421025850477e+02
3.287500000000000000e+01  6.317646876447060640e+04  2.496781592735834749e+02
3.300000000000000000e+01  6.335710509591198206e+04  2.525109473084164051e+02
3.312500000000000000e+01  6.310829276185909112e+04  2.523141068815031929e+02
3.325000000000000000e+01  6.198503259545745823e+04  2.502164447552952709e+02
3.337500000000000000e+01  6.017932159536358085e+04  2.467796095480153440e+02
3.350000000000000000e+01  5.884562334974747500e+04  2.475172135770667410e+02
3.362500000000000000e+01  5.704804699290399731e+04  2.410289611563552512e+02
3.375000000000000000e+01  5.605704736305883125e+04  2.414077731413652259e+02
3.387500000000000000e+01  5.517631205153735209e+04  2.374520352717614458e+02
3.400000000000000000e+01  5.528578594284725841e+04  2.355339160930808191e+02
3.412500000000000000e+01  5.488296655374632974e+04  2.280051122869892311e+02
3.425000000000000000e+01  5.456115316369116772e+04  2.374536871635887962e+02
3.437500000000000000e+01  5.457989755154574959e+04  2.348179590589082011e+02
3.450000000000000000e+01  5.476467159079034172e+04  2.343411164546850216e+02
3.462500000000000000e+01  5.446308562251308467e+04  2.377484767485609609e+02
3.475000000000000000e+01  5.428256965601365664e+04  2.358173380122110814e+02
3.487500000000000000e+01  5.431387035988870048e+04  2.350743237505427601e+02
3.500000000000000000e+01  5.441762342614566296e+04  2.406564066056894546e+02
3.512500000000000000e+01  5.352514257642749726e+04  2.367905581574093787e+02
3.525000000000000000e+01  5.399445281036704546e+04  2.366857738306591727e+02
3.537500000000000000e+01  5.338603906977742008e+04  2.331401458290952746e+02
3.550000000000000000e+01  5.350450701001267589e+04  2.279389316495619653e+02
3.562500000000000000e+01  5.321628701607442781e+04  2.267028332738669292e+02
3.575000000000000000e+01  5.401424213356923428e+04  2.385624256322232952e+02
3.587500000000000000e+01  5.367781846077679074e+04  2.335341739878171552e+02
3.600000000000000000e+01  5.328897369052565045e+04  2.349447637749363764e+02
3.612500000000000000e+01  5.320488621061814047e+04  2.338049608270505644e+02
3.625000000000000000e+01  5.302148487657927762e+04  2.377621156069298536e+02
3.637500000000000000e+01  5.351991043494960468e+04  2.360019331277050298e+02
3.650000000000000000e+01  5.310179525205041136e+04  2.375402163089084127e+02
3.662500000000000000e+01  5.317653139217366697e+04  2.383447808199781548e+02
3.675000000000000000e+01  5.328433475223969435e+04  2.373308106052847108e+02
3.687500000000000000e+01  5.329439235846837255e+04  2.253266295084751789e+02
3.700000000000000000e+01  5.306228010481720412e+04  2.314747799409933009e+02
3.712500000000000000e+01  5.288141320797857043e+04  2.324890118519732596e+02
3.725000000000000000e+01  5.341131655666311417e+04  2.353446724013757034e+02
3.737500000000000000e+01  5.325187895900104922e+04  2.366095938639793417e+02
3.750000000000000000e+01  5.314015045350669243e+04  2.341430225777967280e+02
3.762500000000000000e+01  5.254642154670962191e+04  2.367893005552351724e+02
3.775000000000000000e+01  5.331109519131627167e+04  2.363228122403070302e+02
3.787500000000000000e+01  5.328260940595632565e+04  2.420536885399336882e+02
3.800000000000000000e+01  5.275824350631278503e+04  2.342198270624496672e+02
3.812500000000000000e+01  5.240606712974311085e+04  2.365944314960148631e+02
3.825000000000000000e+01  5.293092198582529818e+04  2.222889781584997877e+02
3.837500000000000000e+01  5.235276627042990731e+04  2.322618379392697818e+02
3.850000000000000000e+01  5.260528641436234466e+04  2.343016507812752991e+02
3.862500000000000000e+01  5.279716984450953896e+04  2.332575713647655391e+02
3.875000000000000000e+01  5.290890564900937170e+04  2.381207354390957107e+02
3.887500000000000000e+01  5.238136127948054491e+04  2.336591653869250536e+02
3.900000000000000000e+01  5.223392280945606763e+04  2.352139765480462756e+02
3.912500000000000000e+01  5.263476821130359167e+04  2.366521959313315904e+02
3.925000000000000000e+01  5.196591057588291733e+04  2.335410921245118629e+02
3.937500000000000000e+01  5.232732407204389165e+04  2.399301224765704319e+02
3.950000000000000000e+01  5.250743104446936195e+04  2.377386940573735501e+02
3.962500000000000000e+01  5.251951869628478744e+04  2.253247400509812053e+02
3.975000000000000000e+01  5.205962019276170759e+04  2.290887030578344365e+02
3.987500000000000000e+01  5.214027807258525718e+04  2.320165978222539991e+02
4.000000000000000000e+01  5.224237528350988578e+04  2.333504907291695929e+02
4.012500000000000000e+01  5.255449389633785904e+04  2.346767470026405817e+02
4.025000000000000000e+01  5.198198507763080124e+04  2.355431858649725427e+02
4.037500000000000000e+01  5.296670896403741790e+04  2.370403099085702081e+02
4.050000000000000000e+01  5.231479540023005393e+04  2.337392657470646498e+02
4.062500000000000000e+01  5.239755956204298855e+04  2.400654944700915507e+02
4.075000000000000000e+01  5.206284010547972139e+04  2.336913259061505528e+02
4.087500000000000000e+01  5.221161866154331801e+04  2.384141886856451151e+02
4.100000000000000000e+01  5.168367103406340902e+04  2.267132982401940637e+02
4.112500000000000000e+01  5.112971967430276709e+04  2.298737011936128738e+02
4.125000000000000000e+01  5.123557433260195103e+04  2.291187074378254636e+02
4.137500000000000000e+01  5.138248715021507815e+04  2.315466281132560766e+02
4.150000000000000000e+01  5.180642570017131948e+04  2.345479131219614715e+02
4.162500000000000000e+01  5.113982502911576739e+04  2.332672665142779351e+02
4.175000000000000000e+01  5.114800374945574004e+04  2.346559672058309616e+02
4.187500000000000000e+01  5.094219916522286803e+04  2.326977037635667216e+02
4.200000000000000000e+01  5.091144040354042227e+04  2.347146437122072484e+02
4.212500000000000000e+01  5.093289944903271680e+04  2.330982425528842157e+02
4.225000000000000000e+01  5.044274454239002080e+04  2.322824587220725618e+02
4.237500000000000000e+01  5.048463410322360869e+04  2.234139578709166187e+02
4.250000000000000000e+01  5.056262176225759322e+04  2.266584654329901980e+02
4.262500000000000000e+01  4.998805780525275622e+04  2.261463236581103899e+02
4.275000000000000000e+01  5.009528431189635739e+04  2.276188513293093081e+02
4.287500000000000000e+01  4.999227900684330234e+04  2.261631060161500670e+02
4.300000000000000000e+01  5.022445496527189243e+04  2.292135744510488564e+02
4.312500000000000000e+01  4.938525959307370067e+04  2.266237394034164652e+02
4.325000000000000000e+01  4.981286662627501937e+04  2.278339823930010937e+02
4.337500000000000000e+01  5.009965244154566608e+04  2.294266266388386555e+02
4.350000000000000000e+01  4.933630845431332273e+04  2.246298683305590203e+02
4.362500000000000000e+01  4.917685233152334695e+04  2.288409610953000310e+02
4.375000000000000000e+01  4.973055942247693747e+04  2.123725495461145556e+02
4.387500000000000000e+01  4.913434110567878815e+04  2.073400443084854317e+02
4.400000000000000000e+01  4.940130481384525046e+04  2.354927483668656407e+02
4.412500000000000000e+01  4.900238064925195795e+04  2.216984571462258486e+02
4.425000000000000000e+01  4.933076378031416971e+04  2.284296827741996196e+02
4.437500000000000000e+01  4.876710108110482543e+04  2.230345324891361258e+02
4.450000000000000000e+01  4.889341415011790377e+04  2.211081833182913385e+02
4.462500000000000000e+01  4.890108252175023517e+04  2.223902499097657426e+02
4.475000000000000000e+01  4.841959252043977176e+04  2.220381517260416899e+02
4.487500000000000000e+01  4.847244427931014798e+04  2.214323386659756920e+02
4.500000000000000000e+01  4.803578058086704550e+04  2.204752333720883541e+02
4.512500000000000000e+01  4.837500659877114958e+04  2.141682392910043120e+02
4.525000000000000000e+01  4.843466142351275630e+04  2.171870564874589320e+02
4.537500000000000000e+01  4.933421197674130235e+04  2.218932567722512488e+02
4.550000000000000000e+01  4.874157385730279202e+04  2.203674502572533243e+02
4.562500000000000000e+01  4.858884902929530654e+04  2.250738370531293810e+02
4.575000000000000000e+01  4.885116603519671480e+04  2.230460835798927235e+02
4.587500000000000000e+01  4.936109385310918879e+04  2.262081877455224230e+02
4.600000000000000000e+01  4.960257814262302418e+04  2.280632542260773050e+02
4.612500000000000000e+01  5.006454443905541120e+04  2.321862425906481064e+02
4.625000000000000000e+01  5.045010581692167034e+04  2.277895106863360866e+02
4.637500000000000000e+01  5.077260463903351047e+04  2.362308748523958855e+02
4.650000000000000000e+01  5.156151266468650283e+04  2.322567097596501071e+02
4.662500000000000000e+01  5.376980941358432756e+04  2.310016005049289731e+02
4.675000000000000000e+01  5.623999563471648435e+04  2.453953799220949179e+02
4.687500000000000000e+01  5.958841309576122876e+04  2.492148548053368700e+02
4.700000000000000000e+01  6.269838610570494347e+04  2.619102680405450201e+02
4.712500000000000000e+01  6.677654440565961704e+04  2.682762676197448855e+02
4.725000000000000000e+01  6.921630616330621706e+04  2.759264641945218841e+02
4.737500000000000000e+01  7.152024949451605789e+04  2.776548630804719551e+02
4.750000000000000000e+01  7.207740782279380073e+04  2.870471041598496527e+02
4.762500000000000000e+01  7.117825381407665554e+04  2.806428979213124535e+02
4.775000000000000000e+01  6.933824689769033284e+04  2.824397798111115208e+02
4.787500000000000000e+01  6.630685477290936979e+04  2.674185308137255106e+02
4.800000000000000000e+01  6.239908757369319937e+04  2.512499920962447675e+02
4.812500000000000000e+01  5.926759291871845926e+04  2.502235131591667709e+02
4.825000000000000000e+01  5.627515570097164164e+04  2.466548454232140841e+02
4.837500000000000000e+01  5.358736924046206695e+04  2.434607705181669530e+02
4.850000000000000000e+01  5.234325855005870108e+04  2.377005492752188047e+02
4.862500000000000000e+01  5.170389863612554473e+04  2.392647945434784162e+02
4.875000000000000000e+01  5.040468807139489945e+04  2.381876220505171773e+02
4.887500000000000000e+01  5.067270246623236744e+04  2.406880860952209105e+02
4.900000000000000000e+01  5.011741510061812005e+04  2.380075966561311702e+02
4.912500000000000000e+01  5.026872402647534909e+04  2.379306343097906904e+02
4.925000000000000000e+01  5.037228629799895134e+04  2.394665406176478371e+02
4.937500000000000000e+01  4.953964305569530552e+04  2.227136343165806522e+02
4.950000000000000000e+01  4.981348534417737392e+04  2.305809245624080006e+02
4.962500000000000000e+01  4.999679419349743694e+04  2.341802329626277981e+02
4.975000000000000000e+01  4.963631472752745321e+04  2.303712351642140561e+02
4.987500000000000000e+01  5.059852107594921836e+04  2.402192415201426741e+02
5.000000000000000000e+01  4.993045324793662439e+04  2.369461034748323698e+02
5.012500000000000000e+01  4.946467831599148485e+04  2.356396135626644082e+02
5.025000000000000000e+01  4.994646396558693959e+04  2.389536808366626985e+02
5.037500000000000000e+01  5.048643422713400651e+04  2.392587653423088057e+02
5.050000000000000000e+01  4.977957393808838970e+04  2.378994607447795033e+02
5.062500000000000000e+01  5.036916405159230635e+04  2.389849639613802310e+02
5.075000000000000000e+01  5.070302749023483921e+04  2.276311910482743883e+02
5.087500000000000000e+01  4.985526884381411946e+04  2.321840271211638367e+02
5.100000000000000000e+01  5.025493921614842839e+04  2.301860250277811133e+02
5.112500000000000000e+01  5.026711373983911471e+04  2.387723718766762033e+02
5.125000000000000000e+01  5.006498446334389882e+04  2.359745173468235180e+02
5.137500000000000000e+01  5.003292959349089506e+04  2.423108155667370909e+02
5.150000000000000000e+01  4.993100838731880503e+04  2.362475002719180850e+02
5.162500000000000000e+01  5.009162697189331811e+04  2.403284766497610576e+02
5.175000000000000000e+01  4.987910934197981987e+04  2.362824579239074296e+02
5.187500000000000000e+01  4.956727996845471353e+04  2.383979242488721297e+02
5.200000000000000000e+01  4.954901664842605533e+04  2.373403054395367349e+02
5.212500000000000000e+01  4.974271232135697937e+04  2.262996988744822602e+02
5.225000000000000000e+01  4.984675616812126827e+04  2.326444599083842206e+02
5.237500000000000000e+01  4.900076484429521224e+04  2.322024291381998182e+02
5.250000000000000000e+01  4.913241231466295721e+04  2.353744708530272476e+02
5.262500000000000000e+01  4.956744765123539401e+04  2.342887944428279354e+02
5.275000000000000000e+01  4.948262364692111441e+04  2.388932212679744680e+02
5.287500000000000000e+01  4.913920384152138286e+04  2.313182426273054375e+02
5.300000000000000000e+01  4.958828909846927854e+04  2.401320658603139577e+02
5.312500000000000000e+01  4.967536005691034370e+04  2.353780265330167651e+02
5.325000000000000000e+01  5.076657739875524567e+04  2.442592907643499984e+02
5.337500000000000000e+01  5.128073250158795418e+04  2.400940179647299999e+02
5.350000000000000000e+01  5.238591413361824380e+04  2.350846581473593915e+02
5.362500000000000000e+01  5.376189969880854187e+04  2.380523580373419748e+02
5.375000000000000000e+01  5.511464521002374386e+04  2.465615652370301518e+02
5.387500000000000000e+01  5.602770039283890219e+04  2.504883581639055308e+02
5.400000000000000000e+01  5.585934589331369352e+04  2.450183420656650242e+02
5.412500000000000000e+01  5.592750491831266118e+04  2.516781450781680007e+02
5.425000000000000000e+01  5.578166820057609584e+04  2.484589746056285833e+02
5.437500000000000000e+01  5.505267359445621696e+04  2.514974610810773754e+02
5.450000000000000000e+01  5.459325134293554584e+04  2.442730532721624002e+02
5.462500000000000000e+01  5.400964327762825997e+04  2.514852598394156189e+02
5.475000000000000000e+01  5.190918267033169104e+04  2.401761947031700402e+02
5.487500000000000000e+01  5.081777992029117740e+04  2.295127871161307382e+02
5.500000000000000000e+01  4.944857653773333732e+04  2.297524456803512862e+02
5.512500000000000000e+01  4.949046349100913358e+04  2.326112228889036260e+02
5.525000000000000000e+01  4.856246019583304587e+04  2.302029663052608157e+02
5.537500000000000000e+01  4.838708582460862817e+04  2.289604043185972841e+02
5.550000000000000000e+01  4.783788781827316416e+04  2.314604041592214685e+02
5.562500000000000000e+01  4.724260063105636800e+04  2.254535217076334845e+02
5.575000000000000000e+01  4.727614467785410670e+04  2.319549150840535390e+02
5.587500000000000000e+01  4.685787088571743516e+04  2.263321950487265042e+02
5.600000000000000000e+01  4.667816847683244123e+04  2.305776627752000820e+02
5.612500000000000000e+01  4.627504434043510992e+04  2.229274950049401980e+02
5.625000000000000000e+01  4.605442277270829072e+04  2.169315635246579177e+02
5.637500000000000000e+01  4.562431356270839751e+04  2.133351934428930576e+02
5.650000000000000000e+01  4.545506275164958788e+04  2.192343704098121862e+02
5.662500000000000000e+01  4.659245787278385978e+04  2.235556805641018627e+02
5.675000000000000000e+01  4.598765272264695523e+04  2.232121046714186718e+02
5.687500000000000000e+01  4.646312862365748879e+04  2.253183185978835468e+02
5.700000000000000000e+01  4.671409452230743045e+04  2.250634891063246812e+02
5.712500000000000000e+01  4.720374460349607398e+04  2.345543970089251218e+02
5.725000000000000000e+01  4.714402380266295950e+04  2.302202397905649889e+02
5.737500000000000000e+01  4.697905209463924257e+04  2.324129820213719597e+02
5.750000000000000000e+01  4.738215256527710881e+04  2.308853537582219246e+02
5.762500000000000000e+01  4.796829440659129614e+04  2.311919685419919972e+02
5.775000000000000000e+01  4.753814918600779492e+04  2.221481603961833287e+02
5.787500000000000000e+01  4.812325757947426609e+04  2.318957516125281018e+02
5.800000000000000000e+01  4.720380486968150217e+04  2.275787504000577428e+02
5.812500000000000000e+01  4.811321054228077264e+04  2.357131743736374290e+02
5.825000000000000000e+01  4.807890987161878002e+04  2.357602559776044870e+02
5.837500000000000000e+01  4.852868271835227642e+04  2.396573132465688332e+02
5.850000000000000000e+01  4.812712993958435254e+04  2.297322763985888230e+02
5.862500000000000000e+01  4.841343431856086681e+04  3.006929608474753195e+02
5.875000000000000000e+01  4.817963900431187358e+04  2.285449504358921331e+02
5.887500000000000000e+01  4.865133563780743134e+04  2.258021986271744197e+02
5.900000000000000000e+01  4.809634072005997587e+04  2.269629741944723662e+02
5.912500000000000000e+01  4.838853010909890872e+04  2.237764946229350187e+02
5.925000000000000000e+01  4.828076375635729346e+04  2.306417608261705254e+02
5.937500000000000000e+01  4.926588044927058218e+04  2.363640082549536316e+02
5.950000000000000000e+01  4.879901806085070712e+04  2.344183920848979312e+02
5.962500000000000000e+01  4.970912586455162818e+04  2.419831057340454379e+02
5.975000000000000000e+01  5.017633467617689166e+04  2.419999135651088693e+02
5.987500000000000000e+01  5.065537348194398510e+04  2.457551340280114403e+02
6.000000000000000000e+01  5.107644504796162073e+04  2.422562607968889381e+02
6.012500000000000000e+01  5.235858255702493625e+04  2.530699796696440558e+02
6.025000000000000000e+01  5.247188123778287991e+04  2.460866403686985393e+02
6.037500000000000000e+01  5.253920374960322806e+04  2.531047403280150263e+02
6.050000000000000000e+01  5.271373541891975765e+04  2.255753711090338243e+02
6.062500000000000000e+01  5.277812446676158288e+04  2.429567471287777494e+02
6.075000000000000000e+01  5.298689240411279752e+04  2.476293385616791056e+02
6.087500000000000000e+01  5.202735215845885978e+04  2.427397806602024275e+02
6.100000000000000000e+01  5.163016083199696004e+04  2.459136777862620988e+02
6.112500000000000000e+01  5.149467775946321490e+04  2.434525651692842700e+02
6.125000000000000000e+01  5.021123205290136684e+04  2.489031263211187763e+02
6.137500000000000000e+01  5.005383951789403363e+04  2.398602467816519095e+02
6.150000000000000000e+01  4.995271416410277016e+04  2.453264879331911743e+02
6.162500000000000000e+01  4.970936813955582329e+04  2.405238821778841896e+02
6.175000000000000000e+01  4.956585139416616585e+04  2.433619781695669815e+02
6.187500000000000000e+01  5.016275982863165700e+04  2.246584232229446059e+02
6.200000000000000000e+01  5.096799461791891372e+04  2.393153732275671928e+02
6.212500000000000000e+01  5.125590182282702881e+04  2.432141421551323788e+02
6.225000000000000000e+01  5.346713593861334812e+04  2.475250788985431711e+02
6.237500000000000000e+01  5.641673559926212329e+04  2.608198931524182171e+02
6.250000000000000000e+01  6.069856303437658789e+04  2.637597495958535205e+02
6.262500000000000000e+01  6.655958882743802678e+04  2.801795063347042856e+02
6.275000000000000000e+01  7.346282983073724608e+04  2.913357167502186371e+02
6.287500000000000000e+01  8.205562863490291056e+04  3.164775964138606241e+02
6.300000000000000000e+01  9.221231357736383507e+04  3.285511429640919800e+02
6.312500000000000000e+01  1.015457003381800896e+05  3.485655308120884683e+02
6.325000000000000000e+01  1.115077447315569734e+05  3.383889047991335133e+02
6.337500000000000000e+01  1.175968820577630395e+05  3.633290598143057082e+02
6.350000000000000000e+01  1.228569458434303669e+05  3.739577951894443117e+02
6.362500000000000000e+01  1.248213576058963081e+05  3.815294125802328722e+02
6.375000000000000000e+01  1.248306336784980376e+05  3.827540205996509144e+02
6.387500000000000000e+01  1.217570381691138027e+05  3.758631532840341833e+02
6.400000000000000000e+01  1.161208461261867342e+05  3.731725678129238304e+02
6.412500000000000000e+01  1.082279785010558262e+05  3.557667965278392330e+02
6.425000000000000000e+01  1.004202146401785285e+05  3.498855989632962178e+02
6.437500000000000000e+01  8.876281820370971400e+04  3.169595334013852721e+02
6.450000000000000000e+01  7.857001553679734934e+04  3.152017991070762264e+02
6.462500000000000000e+01  6.845239721899133292e+04  2.680885009422885901e+02
6.475000000000000000e+01  6.147795113969010708e+04  2.608348561366642571e+02
6.487500000000000000e+01  5.679567649127110053e+04  2.540183092027976954e+02
6.500000000000000000e+01  5.362492404376612103e+04  2.491112616833327138e+02
6.512500000000000000e+01  5.135990346952714754e+04  2.452252195115540303e+02
6.525000000000000000e+01  5.024928182032680343e+04  2.399661657650043196e+02
6.537500000000000000e+01  4.949823514954774146e+04  2.417195335223637755e+02
6.550000000000000000e+01  4.959172773939225590e+04  2.437918840177460993e+02
6.562500000000000000e+01  4.899895625330212351e+04  2.415794363707854302e+02
6.575000000000000000e+01  4.873467968192096305e+04  2.397815565078021507e+02
6.587500000000000000e+01  4.909339616697215388e+04  2.515494031789436349e+02
6.600000000000000000e+01  4.923265985422966332e+04  2.283134481578767918e+02
6.612500000000000000e+01  4.946851939091359964e+04  2.323746522524530178e+02
6.625000000000000000e+01  4.961566588608360325e+04  2.380147898992532305e+02
6.637500000000000000e+01  4.937617951073146105e+04  2.408221672016699131e+02
6.650000000000000000e+01  4.987130192985621397e+04  2.411409274372962273e+02
6.662500000000000000e+01  4.993814139682468522e+04  2.414838751770379304e+02
6.675000000000000000e+01  4.980769777378653089e+04  2.432887877509734551e+02
6.687500000000000000e+01  5.015992687088399543e+04  2.434259646697023527e+02
6.700000000000000000e+01  5.100255742880768958e+04  2.502983871997241749e+02
6.712500000000000000e+01  4.969496407770473161e+04  2.423712079487569326e+02
6.725000000000000000e+01  5.019994146357877617e+04  2.528266601505102358e+02
6.737500000000000000e+01  5.063645444147787930e+04  2.287451815185453654e+02
6.750000000000000000e+01  5.055042974171294190e+04  2.340473255439266040e+02
6.762500000000000000e+01  5.089081533910510188e+04  2.403104798318949236e+02
6.775000000000000000e+01  5.047475496220354398e+04  2.404186784002292825e+02
6.787500000000000000e+01  5.098351473372831970e+04  2.451158844135055688e+02
6.800000000000000000e+01  5.061097490932943037e+04  2.427978379530503332e+02
6.812500000000000000e+01  5.032436717974220664e+04  2.432861181254321252e+02
6.825000000000000000e+01  5.102029021017152263e+04  2.475604954849559363e+02
6.837500000000000000e+01  5.065591228702020453e+04  2.547421590346967264e+02
6.850000000000000000e+01  5.096001006921968656e+04  2.431524017571299225e+02
6.862500000000000000e+01  5.156203096954691136e+04  2.508633503121991737e+02
6.875000000000000000e+01  5.097160090642118303e+04  2.358785415736763014e+02
6.887500000000000000e+01  5.118816113888026302e+04  2.349886269976335882e+02
6.900000000000000000e+01  5.150812694081802329e+04  2.410055096672782042e+02
6.912500000000000000e+01  5.146617852415646485e+04  2.420604753405229133e+02
6.925000000000000000e+01  5.201895525262653246e+04  2.440537456343939766e+02
6.937500000000000000e+01  5.250142157422811579e+04  2.458173106097941059e+02
6.950000000000000000e+01  5.294609646792217245e+04  2.527958437953218720e+02
6.962500000000000000e+01  5.260895064941784949e+04  2.522783112365109730e+02
6.975000000000000000e+01  5.244133316917524644e+04  2.560552144496060123e+02
6.987500000000000000e+01  5.263985097228767700e+04  2.457312298252700202e+02
7.000000000000000000e+01  5.275711718296738400e+04  2.589121218418353578e+02
7.012500000000000000e+01  5.281500486096317763e+04  2.378113520578876603e+02
7.025000000000000000e+01  5.276045980414688529e+04  2.363706963446615816e+02
7.037500000000000000e+01  5.256368983017196297e+04  2.409126246861489733e+02
7.050000000000000000e+01  5.282615757357275288e+04  2.455596690631818149e+02
7.062500000000000000e+01  5.273704154635027226e+04  2.434339981605737364e+02
7.075000000000000000e+01  5.330589026625187398e+04  2.493244328494161266e+02
7.087500000000000000e+01  5.306928383903806389e+04  2.534764845500232582e+02
7.100000000000000000e+01  5.361139603589163744e+04  2.514861443044964062e+02
7.112500000000000000e+01  5.327665739389538794e+04  2.526237097235909346e+02
7.125000000000000000e+01  5.314667758494360169e+04  2.482351572089072249e+02
7.137500000000000000e+01  5.364674623138344032e+04  2.587316522090421813e+02
7.150000000000000000e+01  5.403403766019338218e+04  2.440063039066084229e+02
7.162500000000000000e+01  5.412970131507587212e+04  2.313509748398456622e+02
7.175000000000000000e+01  5.408448972218744166e+04  2.412443628600564978e+02
7.187500000000000000e+01  5.539878249664689065e+04  2.487503841326420968e+02
7.200000000000000000e+01  5.640370719819914666e+04  2.544349791452111447e+02
7.212500000000000000e+01  5.632307250787556404e+04  2.538543754473500371e+02
7.225000000000000000e+01  5.690909751432188932e+04  2.592487994632389245e+02
7.237500000000000000e+01  5.789937346754272585e+04  2.594064199530818655e+02
7.250000000000000000e+01  5.873700580361257744e+04  2.633628710067640668e+02
7.262500000000000000e+01  5.935754321165135480e+04  2.609280329500637094e+02
7.275000000000000000e+01  5.878498603539396572e+04  2.685057831220859725e+02
7.287500000000000000e+01  5.991284105483809253e+04  2.602717621283521225e+02
7.300000000000000000e+01  6.026683837539771775e+04  2.389679227296889792e+02
7.312500000000000000e+01  6.039983544994847034e+04  2.239474500989799424e+02
7.325000000000000000e+01  6.043778224787548243e+04  2.445711507603940618e+02
7.337500000000000000e+01  5.955105733455503650e+04  3.405253394004784013e+02
7.350000000000000000e+01  5.922705152554281085e+04  2.592769528671240096e+02
7.362500000000000000e+01  5.781816134431715182e+04  2.599442130543795315e+02
7.375000000000000000e+01  5.770880516458967031e+04  2.575105821569941327e+02
7.387500000000000000e+01  5.721208245101334614e+04  2.566286813326298670e+02
7.400000000000000000e+01  5.656598039813713694e+04  2.532901016117614290e+02
7.412500000000000000e+01  5.611307788868097850e+04  2.608190240889903180e+02
7.425000000000000000e+01  5.512902335965810198e+04  2.468458233623621538e+02
7.437500000000000000e+01  5.508648731322089589e+04  2.272114895461726292e+02
7.450000000000000000e+01  5.483542735434842325e+04  2.382708115363736283e+02
7.462500000000000000e+01  5.501164935299455828e+04  2.466741298970098910e+02
7.475000000000000000e+01  5.463574301176481094e+04  2.481316200680151951e+02
7.487500000000000000e+01  5.549674597403634834e+04  2.463045824243822040e+02
7.500000000000000000e+01  5.478056078833488573e+04  2.520411945804639231e+02
7.512500000000000000e+01  5.500523607713007368e+04  2.428777234203316198e+02
7.525000000000000000e+01  5.522833149528704234e+04  2.523183508846305187e+02
7.537500000000000000e+01  5.606874555058277474e+04  2.473712074200288669e+02
7.550000000000000000e+01  5.565368393658571586e+04  2.570862643656160458e+02
7.562500000000000000e+01  5.582972575804335065e+04  2.448719288072867926e+02
7.575000000000000000e+01  5.653334768534600880e+04  2.339066197850968081e+02
7.587500000000000000e+01  5.573057793627913634e+04  2.394208802127312481e+02
7.600000000000000000e+01  5.663069038828272460e+04  2.486578104055205642e+02
7.612500000000000000e+01  5.602578252326002985e+04  2.485595358063881406e+02
7.625000000000000000e+01  5.592476536869792471e+04  2.440547681303284548e+02
7.637500000000000000e+01  5.589143901977993664e+04  2.505637254498755340e+02
7.650000000000000000e+01  5.619969179597006587e+04  2.446449592548337364e+02
7.662500000000000000e+01  5.623423678685562481e+04  2.543026093315351659e+02
7.675000000000000000e+01  5.582429222477177245e+04  2.427074320550250945e+02
7.687500000000000000e+01  5.633892209834290406e+04  2.608199577673670433e+02
7.700000000000000000e+01  5.614853070458759612e+04  2.453304771470540402e+02
7.712500000000000000e+01  5.591408182042143017e+04  2.368900518042601391e+02
7.725000000000000000e+01  5.589340344544297841e+04  2.332681446072461142e+02
7.737500000000000000e+01  5.645232960550114512e+04  2.439940244513099401e+02
7.750000000000000000e+01  5.603725332157831144e+04  2.448559580616960432e+02
7.762500000000000000e+01  5.676893555658251717e+04  2.442516357978966255e+02
7.775000000000000000e+01  5.681797904536048736e+04  2.489216968196223831e+02
7.787500000000000000e+01  5.716750678181210969e+04  2.485708239410799649e+02
7.800000000000000000e+01  5.737660454328983906e+04  2.539583482847667710e+02
7.812500000000000000e+01  5.768463138925478415e+04  2.460956500463548480e+02
7.825000000000000000e+01  5.851187615632883535e+04  2.655026828241822159e+02
7.837500000000000000e+01  5.922370625204135285e+04  2.546461365811921667e+02
7.850000000000000000e+01  5.955087658229309454e+04  2.402847351785187584e+02
7.862500000000000000e+01  6.008583927887593745e+04  2.415131819691534645e+02
7.875000000000000000e+01  6.078085621639173041e+04  2.512013149792925333e+02
7.887500000000000000e+01  6.069090835687523941e+04  2.534514576559143109e+02
7.900000000000000000e+01  6.077496017904987821e+04  2.522021415025914450e+02
7.912500000000000000e+01  6.127039450227699126e+04  2.555974571108341706e+02
7.925000000000000000e+01  6.153097055520358117e+04  2.541170577962604398e+02
7.937500000000000000e+01  6.072410431229310780e+04  2.572131800739851428e+02
7.950000000000000000e+01  6.153154706847827038e+04  2.586683762875769617e+02
7.962500000000000000e+01  6.156532000561535824e+04  2.695803087226483967e+02
7.975000000000000000e+01  6.079874945148005645e+04  2.602422953826747971e+02
7.987500000000000000e+01  6.083908295163406729e+04  2.434400896061810897e+02
8.000000000000000000e+01  6.063515000028575014e+04  2.383500611827576563e+02
8.012500000000000000e+01  5.988860075376633904e+04  2.473468833332343877e+02
8.025000000000000000e+01  5.918636579391531995e+04  2.450828467710425116e+02
8.037500000000000000e+01  5.920613757153246843e+04  2.437188968953529695e+02
8.050000000000000000e+01  5.897735349176011368e+04  2.568679599878802264e+02
8.062500000000000000e+01  5.918621859779534134e+04  2.459801515182578271e+02
8.075000000000000000e+01  6.040763415574957617e+04  2.625798486845270077e+02
8.087500000000000000e+01  6.037383927189251699e+04  2.506282334767309692e+02
8.100000000000000000e+01  6.150603648028580210e+04  2.719775977577203889e+02
8.112500000000000000e+01  6.267914061897477222e+04  2.604608785601009231e+02
8.125000000000000000e+01  6.371919235118334473e+04  2.509388198883143275e+02
8.137500000000000000e+01  6.580324957122199703e+04  2.444680744074125300e+02
8.150000000000000000e+01  6.678467895472038072e+04  2.561471079294998390e+02
8.162500000000000000e+01  6.909239289318888041e+04  2.631523144301048660e+02
8.175000000000000000e+01  7.010896556848181353e+04  2.618614278381634222e+02
8.187500000000000000e+01  7.162850081059479271e+04  2.758842573094636350e+02
8.200000000000000000e+01  7.287240189989565988e+04  2.703226996926959487e+02
8.212500000000000000e+01  7.361690522955752385e+04  2.969775911022137507e+02
8.225000000000000000e+01  7.356113090094750805e+04  2.800749136519316380e+02
8.237500000000000000e+01  7.353156244070168759e+04  2.941662590948632214e+02
8.250000000000000000e+01  7.373992445247541764e+04  2.801471520429419684e+02
8.262500000000000000e+01  7.251471254479014897e+04  2.704643395752592596e+02
8.275000000000000000e+01  7.203022249227137945e+04  2.466962046943008602e+02
8.287500000000000000e+01  7.168446396153389651e+04  2.610542268516012427e+02
8.300000000000000000e+01  7.020810176742456679e+04  2.665562457696433967e+02
8.312500000000000000e+01  6.849875832113254000e+04  2.554892450592793693e+02
8.325000000000000000e+01  6.766492812370347383e+04  2.647122623691165586e+02
8.337500000000000000e+01  6.580573856059196987e+04  2.669214158560454280e+02
8.350000000000000000e+01  6.462077573258106713e+04  2.758449996891521891e+02
8.362500000000000000e+01  6.345254018270583038e+04  2.567645439705626131e+02
8.375000000000000000e+01  6.224939851972075849e+04  2.732261073762177261e+02
8.387500000000000000e+01  6.144893567972184974e+04  2.508642294207031966e+02
8.400000000000000000e+01  6.165074767028635688e+04  2.723168191649273808e+02
8.412500000000000000e+01  6.124792506016743573e+04  2.112675791681391217e+02
8.425000000000000000e+01  6.117724443473012798e+04  2.374781374780469605e+02
8.437500000000000000e+01  6.221286505111827864e+04  2.485454406137267824e+02
8.450000000000000000e+01  6.214127810827842768e+04  2.365009749404067634e+02
8.462500000000000000e+01  6.300490933925042918e+04  2.742352272272176492e+02
8.475000000000000000e+01  6.335651895663127652e+04  2.540507926699901873e+02
8.487500000000000000e+01  6.486503813808098494e+04  2.755403803815464698e+02
8.500000000000000000e+01  6.462225634067441570e+04  2.621900012141576326e+02
8.512500000000000000e+01  6.534273518836428411e+04  2.772071746592629893e+02
8.525000000000000000e+01  6.587118424652177782e+04  2.637866817613382295e+02
8.537500000000000000e+01  6.587530095486567006e+04  2.653222575111853985e+02
8.550000000000000000e+01  6.567630304887730745e+04  2.216379519839316004e+02
8.562500000000000000e+01  6.565474724352810881e+04  2.393418551986920306e+02
8.575000000000000000e+01  6.555970956627614214e+04  2.468141447370289541e+02
8.587500000000000000e+01  6.562072543116103043e+04  2.552485564122542883e+02
8.600000000000000000e+01  6.470752623395815317e+04  2.781891002559715389e+02
8.612500000000000000e+01  6.435162940291332052e+04  2.557767844910316057e+02
8.625000000000000000e+01  6.363863556027742015e+04  2.712968681988301682e+02
8.637500000000000000e+01  6.347866521977054072e+04  2.581991333904089174e+02
8.650000000000000000e+01  6.269361364081923966e+04  2.692623230522891049e+02
8.662500000000000000e+01  6.207023359340103343e+04  2.537307321654468808e+02
8.675000000000000000e+01  6.086410458463581745e+04  2.631581467082021391e+02
8.687500000000000000e+01  6.062176358646011795e+04  2.040778249017858172e+02
8.700000000000000000e+01  5.963311820230433659e+04  2.207075375651290301e+02
8.712500000000000000e+01  5.921067593433196453e+04  2.460435516870072661e+02
8.725000000000000000e+01  5.882071924807255709e+04  2.470238016957939351e+02
8.737500000000000000e+01  5.822438584159022139e+04  2.613614491416286683e+02
8.750000000000000000e+01  5.882078799329262984e+04  2.471418050063579130e+02
8.762500000000000000e+01  5.847063279495287861e+04  2.570392242889458885e+02
8.775000000000000000e+01  5.792577773038672603e+04  2.447068128118584411e+02
8.787500000000000000e+01  5.833582101029236946e+04  2.117456155488194725e+02
8.800000000000000000e+01  5.835459008643300331e+04  6.747661006361187219e+02
8.812500000000000000e+01  5.812108541457708634e+04  2.233873764561142536e+02
8.825000000000000000e+01  5.801771678900227562e+04  1.901872693624205226e+02
8.837500000000000000e+01  5.778409811998811347e+04  2.179647599310874568e+02
8.850000000000000000e+01  5.802990566527951160e+04  2.582399184940756527e+02
8.862500000000000000e+01  5.750131888926544343e+04  2.414019614900885529e+02
8.875000000000000000e+01  5.764448966176186514e+04  2.552791191606676762e+02
8.887500000000000000e+01  5.747917496908231988e+04  2.433592815552561888e+02
8.900000000000000000e+01  5.755982979300489387e+04  2.564172993985260973e+02
8.912500000000000000e+01  5.729568540530143218e+04  2.417216729784769313e+02
8.925000000000000000e+01  5.788121286089345813e+04  2.585142210526273630e+02
8.937500000000000000e+01  5.776649303038763901e+04  2.429910593260810856e+02
8.950000000000000000e+01  5.774008619450248079e+04  2.590361701114476318e+02
8.962500000000000000e+01  5.760702761123336677e+04  1.758626376226471564e+02
8.975000000000000000e+01  5.795953634263518325e+04  2.408653729518051989e+02
8.987500000000000000e+01  5.763992138991615502e+04  2.564079826846905235e+02
9.000000000000000000e+01  5.791380713279904012e+04  2.401615742675267313e+02
9.012500000000000000e+01  5.777962358735276939e+04  2.560382943517065542e+02
9.025000000000000000e+01  5.812200437532344949e+04  2.417305753979351266e+02
9.037500000000000000e+01  5.809478436217837589e+04  2.601853165702101478e+02
9.050000000000000000e+01  5.810459283077783039e+04  2.418045958525809169e+02
9.062500000000000000e+01  5.790500797106477694e+04  2.543512642836377893e+02
9.075000000000000000e+01  5.815046235938298196e+04  2.456274991802119700e+02
9.087500000000000000e+01  5.877229547907556844e+04  2.413346468857606339e+02
9.100000000000000000e+01  5.873178846209000039e+04  1.830476968941833604e+02
9.112500000000000000e+01  5.911987170169411547e+04  2.438083149332661606e+02
9.125000000000000000e+01  5.898228860291452293e+04  2.578400650529428049e+02
9.137500000000000000e+01  5.899559879669707880e+04  2.424130967966917751e+02
9.150000000000000000e+01  5.842903201964634354e+04  2.600907739752666998e+02
9.162500000000000000e+01  5.911263365995155618e+04  2.417457060419999948e+02
9.175000000000000000e+01  5.899021595534747757e+04  2.611695421261320575e+02
9.187500000000000000e+01  5.925546684774608002e+04  2.404926924099976588e+02
9.200000000000000000e+01  5.848091393791417067e+04  2.587853734043146687e+02
9.212500000000000000e+01  5.897604146188579034e+04  2.445686348184439112e+02
9.225000000000000000e+01  5.952445640872192598e+04  2.180412274721433619e+02
9.237500000000000000e+01  5.902336267791462888e+04  1.952714596700895413e+02
9.250000000000000000e+01  5.889558902263874188e+04  2.423789410943742837e+02
9.262500000000000000e+01  5.947185715819286270e+04  2.606460073877142349e+02
9.275000000000000000e+01  5.957907242458766268e+04  2.476706255636609910e+02
9.287500000000000000e+01  5.924373934148161061e+04  2.538002402347289603e+02
9.300000000000000000e+01  5.907011490743485047e+04  2.465002214344220306e+02
9.312500000000000000e+01  5.947920710438326205e+04  2.598559597603843372e+02
9.325000000000000000e+01  5.945282183438273933e+04  2.406227867752969587e+02
9.337500000000000000e+01  5.933040922096907161e+04  2.566973215258816481e+02
9.350000000000000000e+01  5.952859291462707915e+04  2.285288794776926409e+02
9.362500000000000000e+01  5.928053485447064304e+04  2.233584770387687968e+02
9.375000000000000000e+01  5.899154138568026247e+04  2.019559651661325006e+02
9.387500000000000000e+01  5.913470490807570604e+04  2.421195897444769116e+02
9.400000000000000000e+01  5.936458610871728888e+04  2.567658959661503673e+02
9.412500000000000000e+01  5.935928509496498009e+04  2.469234376537246760e+02
9.425000000000000000e+01  5.957379477050706919e+04  2.538804584678888716e+02
9.437500000000000000e+01  5.900399811444226361e+04  2.447624504680815392e+02
9.450000000000000000e+01  5.924401523709862522e+04  2.533044866983053680e+02
9.462500000000000000e+01  5.967635902273968532e+04  2.478759451646780292e+02
9.475000000000000000e+01  6.002922993813839275e+04  2.428304121634239152e+02
9.487500000000000000e+01  6.015470960514756734e+04  2.295463019415714143e+02
9.500000000000000000e+01  6.025978392090237321e+04  2.263902102250188477e+02
9.512500000000000000e+01  5.966023758042864210e+04  2.088871676285718877e+02
9.525000000000000000e+01  6.002249247905915399e+04  2.446699975883738603e+02
9.537500000000000000e+01  6.028686348838933191e+04  2.595343032904299321e+02
9.550000000000000000e+01  6.006666355111560551e+04  2.430434913205108955e+02
9.562500000000000000e+01  6.027650644211127656e+04  2.548034710605269879e+02
9.575000000000000000e+01  5.967512489380467741e+04  2.450584328131994312e+02
9.587500000000000000e+01  6.007776763922652026e+04  2.560142474891337656e+02
9.600000000000000000e+01  6.006564847900703899e+04  2.377202211949933428e+02
9.612500000000000000e+01  6.054791396492117929e+04  2.400956462053033817e+02
9.625000000000000000e+01  6.081094656179237791e+04  2.341759564698373310e+02
9.637500000000000000e+01  6.015091475645060564e+04  2.288612990972213481e+02
9.650000000000000000e+01  6.014083005060919822e+04  2.140690436109310895e+02
9.662500000000000000e+01  6.082261005245424894e+04  2.345637461586638608e+02
9.675000000000000000e+01  6.210064978083199094e+04  2.604104143595277492e+02
9.687500000000000000e+01  6.161960049718184018e+04  2.456348664423377954e+02
9.700000000000000000e+01  6.243083929732305842e+04  2.628812562401786863e+02
9.712500000000000000e+01  6.318953037158842199e+04  2.499191694062971294e+02
9.725000000000000000e+01  6.332430575460743421e+04  2.545527185480582943e+02
9.737500000000000000e+01  6.357068643766867172e+04  2.397255821703116396e+02
9.750000000000000000e+01  6.520759383173038805e+04  2.486522238395312741e+02
9.762500000000000000e+01  6.488813260683617409e+04  2.405128950955573259e+02
9.775000000000000000e+01  6.587209437687556783e+04  2.390533157813673881e+02
9.787500000000000000e+01  6.646882289554776798e+04  2.287558268363791569e+02
9.800000000000000000e+01  6.694908821834814444e+04  2.392168088344494947e+02
9.812500000000000000e+01  6.820866819731317810e+04  2.708122163823888400e+02
9.825000000000000000e+01  6.842324944796916679e+04  2.558956024909707594e+02
9.837500000000000000e+01  6.786319429952933569e+04  2.667317935029918772e+02
9.850000000000000000e+01  6.839394955619183020e+04  2.478904158337292358e+02
9.862500000000000000e+01  6.829145414216443896e+04  2.604912791555545368e+02
9.875000000000000000e+01  6.791463136326741369e+04  2.388844081110736681e+02
9.887500000000000000e+01  6.794125781425404421e+04  2.512760701320489432e+02
9.900000000000000000e+01  6.827419524845624983e+04  2.445658941344420043e+02
9.912500000000000000e+01  6.742113478388955991e+04  2.377627019386199834e+02
9.925000000000000000e+01  6.696300963683149894e+04  2.323886058120413054e+02
9.937500000000000000e+01  6.625763281536783325e+04  2.227704277889614559e+02
9.950000000000000000e+01  6.644676303318001737e+04  2.633833224771186110e+02
9.962500000000000000e+01  6.516390329030567955e+04  2.439894109125148418e+02
9.975000000000000000e+01  6.436063969267514767e+04  2.506393027450688749e+02
9.987500000000000000e+01  6.399552030331330752e+04  2.311829648268414985e+02
1.000000000000000000e+02  6.242884943278894207e+04  2.374991285133543784e+02
1.001250000000000000e+02  6.241091746774470084e+04  2.326919650555849444e+02
1.002500000000000000e+02  6.115225263016238023e+04  2.333851456707360228e+02
1.003750000000000000e+02  6.060923001233651303e+04  2.230557941919096834e+02
1.005000000000000000e+02  5.979221886417550559e+04  2.219984323627366791e+02
1.006250000000000000e+02  5.930592039381519862e+04  2.184917437301817245e+02
1.007500000000000000e+02  5.895579114708173438e+04  2.100093173711923100e+02
1.008750000000000000e+02  5.844040720151574351e+04  2.397455551171302091e+02
1.010000000000000000e+02  5.789466935992331128e+04  2.270623638429634070e+02
1.011250000000000000e+02  5.751682863368873950e+04  2.339997285274982630e+02
1.012500000000000000e+02  5.832852162291714922e+04  2.228650788991591583e+02
1.013750000000000000e+02  5.846517584471143346e+04  2.331641168802173922e+02
1.015000000000000000e+02  5.807950422923649603e+04  2.242017449807434843e+02
1.016250000000000000e+02  5.792863448913114553e+04  2.294963885606028668e+02
1.017500000000000000e+02  5.815511534839695378e+04  2.243616001096157788e+02
1.018750000000000000e+02  5.840787597132704104e+04  2.271287714862774294e+02
1.020000000000000000e+02  5.871457155905076070e+04  2.239725740885375842e+02
1.021250000000000000e+02  5.884578752432675537e+04  2.118839609545605356e+02
1.022500000000000000e+02  5.895528086370087840e+04  2.432371274368214529e+02
1.023750000000000000e+02  5.918864060585381230e+04  2.301388057972093009e+02
1.025000000000000000e+02  5.977623806900921045e+04  2.060967787049033575e+02
1.026250000000000000e+02  5.977632752415672439e+04  4.232542449102147657e+02
1.027500000000000000e+02  5.975853010312847618e+04  2.124352486847608930e+02
1.028750000000000000e+02  5.954820804808595858e+04  2.305145655830683609e+02
1.030000000000000000e+02  5.976298189636907045e+04  2.370968267425127749e+02
1.031250000000000000e+02  5.942807630843805237e+04  2.339035542429177781e+02
1.032500000000000000e+02  5.982019364152136404e+04  2.313439427594158531e+02
1.033750000000000000e+02  5.964354318374401919e+04  2.281345166576371355e+02
1.035000000000000000e+02  5.987954101528914180e+04  2.177999527402851356e+02
1.036250000000000000e+02  6.016761493950837030e+04  2.444243119781252176e+02
1.037500000000000000e+02  5.961214582420937222e+04  2.374119319346642953e+02
1.038750000000000000e+02  5.962563634098066541e+04  2.408197841943317314e+02
1.040000000000000000e+02  5.907844534291000309e+04  2.331876358077833515e+02
1.041250000000000000e+02  5.926751079068720719e+04  2.400458533995562789e+02
1.042500000000000000e+02  5.968847088104840805e+04  2.343790131316982013e+02
1.043750000000000000e+02  5.949309443732653017e+04  2.375641182676096435e+02
1.045000000000000000e+02  6.011193423345014162e+04  2.331900105792362865e+02
1.046250000000000000e+02  5.972013280230850796e+04  2.339502760908073355e+02
1.047500000000000000e+02  5.924789203519135481e+04  2.294810159010348798e+02
1.048750000000000000e+02  5.982604346048250591e+04  2.145543333572201163e+02
1.050000000000000000e+02  5.983549993877367524e+04  2.420883338444488970e+02
1.051250000000000000e+02  5.979191456580529484e+04  2.351680668551916540e+02
1.052500000000000000e+02  5.985972501232664217e+04  2.459181256689154225e+02
1.053750000000000000e+02  5.935756773147122294e+04  2.351481796206071238e+02
1.055000000000000000e+02  5.963478750268444128e+04  2.390695163574565925e+02
1.056250000000000000e+02  5.945549772159575514e+04  2.347874849854699733e+02
1.057500000000000000e+02  5.990283430713699636e+04  2.403411597181314789e+02
1.058750000000000000e+02  5.955029731821892346e+04  2.354281675449166187e+02
1.060000000000000000e+02  6.017595855133127043e+04  2.324245122405433790e+02
1.061250000000000000e+02  6.023326530818134052e+04  2.330215952273087225e+02
1.062500000000000000e+02  5.960333370795293740e+04  2.112716863584321914e+02
1.063750000000000000e+02  5.990141784509614081e+04  2.453204948202250364e+02
1.065000000000000000e+02  5.964646316386132094e+04  2.325862210250528790e+02
1.066250000000000000e+02  5.974356522225846129e+04  2.437924017741139266e+02
1.067500000000000000e+02  5.989375890834449820e+04  2.355631657229421023e+02
1.068750000000000000e+02  5.996638125656257034e+04  2.423462764778830945e+02
1.070000000000000000e+02  5.974878171284207929e+04  2.329905174921460969e+02
1.071250000000000000e+02  5.986449170798216801e+04  2.385550746390137533e+02
1.072500000000000000e+02  5.993187413597272098e+04  2.369478167810309230e+02
1.073750000000000000e+02  5.962178562150810467e+04  2.315553208475784288e+02
1.075000000000000000e+02  6.015249787916128116e+04  2.306539484039803369e+02
1.076250000000000000e+02  6.017266661554238817e+04  2.114865654400293806e+02
1.077500000000000000e+02  6.025565067705421825e+04  2.462986747513284342e+02
1.078750000000000000e+02  5.930822545432595507e+04  2.356862187810521334e+02
1.080000000000000000e+02  6.019784936165418185e+04  2.433214686339487969e+02
1.081250000000000000e+02  5.970336176788587181e+04  2.357497476143441588e+02
1.082500000000000000e+02  5.984527779874840053e+04  2.394903437024144921e+02
1.083750000000000000e+02  6.065201214297356637e+04  2.395834717495749828e+02
1.085000000000000000e+02  5.998512170009696274e+04  2.401307457233936020e+02
1.086250000000000000e+02  6.018067083215385355e+04  2.350466758946074322e+02
1.087500000000000000e+02  6.054249133136418095e+04  2.331162405601490093e+02
1.088750000000000000e+02  5.999071351169975969e+04  2.293751959924342998e+02
1.090000000000000000e+02  6.047360745570260042e+04  2.216131933956683326e+02
1.091250000000000000e+02  6.033603459382786968e+04  2.320719707952203521e+02
1.092500000000000000e+02  6.051522532104027050e+04  2.395407747450226168e+02
1.093750000000000000e+02  6.004741343822764611e+04  2.442930616030478745e+02
1.095000000000000000e+02  6.001168914358907932e+04  2.345172987779003790e+02
1.096250000000000000e+02  6.015244781396043254e+04  2.386795189059960478e+02
1.097500000000000000e+02  6.036257468022828107e+04  2.410053316384277480e+02
1.098750000000000000e+02  6.030279885249978543e+04  2.405807376326585540e+02
1.100000000000000000e+02  6.095190524283231935e+04  2.349139355055953047e+02
1.101250000000000000e+02  6.111639027908596472e+04  2.355268849761784793e+02
1.102500000000000000e+02  6.058747960483171482e+04  2.311236944823374699e+02
1.103750000000000000e+02  6.047135571565839928e+04  2.227642151167192139e+02
1.105000000000000000e+02  6.110831989774349495e+04  2.340645012348852276e+02
1.106250000000000000e+02  6.079635925545483042e+04  2.384886249265247500e+02
1.107500000000000000e+02  6.123539861999150162e+04  2.457390831407102496e+02
1.108750000000000000e+02  6.092319857529788715e+04  2.380302822132147469e+02
1.110000000000000000e+02  6.165734581370493834e+04  2.451531034910735229e+02
1.111250000000000000e+02  6.177934371003632987e+04  2.401975196498038372e+02
1.112500000000000000e+02  6.159675180270306009e+04  2.382875355350192592e+02
1.113750000000000000e+02  6.172023400271823630e+04  2.377409858723277409e+02
1.115000000000000000e+02  6.195420827692020248e+04  2.330769686239956968e+02
1.116250000000000000e+02  6.264388331157398352e+04  2.379730201687185911e+02
1.117500000000000000e+02  6.220444538404454215e+04  2.298028247993679827e+02
1.118750000000000000e+02  6.279405347863753559e+04  2.308807760754239666e+02
1.120000000000000000e+02  6.335895949659738835e+04  2.443997636880492053e+02
1.121250000000000000e+02  6.346011046046586125e+04  2.430530030340750898e+02
1.122500000000000000e+02  6.332010412700432789e+04  2.561007617732437325e+02
1.123750000000000000e+02  6.457952070010423631e+04  2.503533569460628883e+02
1.125000000000000000e+02  6.442420659617025376e+04  2.401715759762448101e+02
1.126250000000000000e+02  6.500293554361845599e+04  2.460291654382110664e+02
1.127500000000000000e+02  6.452650010267072503e+04  2.460264320847485635e+02
1.128750000000000000e+02  6.465653199790463987e+04  2.412792327408498068e+02
1.130000000000000000e+02  6.506919996798376087e+04  2.397521761479582096e+02
1.131250000000000000e+02  6.522526545546017587e+04  2.349228619569155398e+02
1.132500000000000000e+02  6.492612471425032709e+04  2.363232294427141653e+02
1.133750000000000000e+02  6.629628569690162840e+04  2.479843466765031508e+02
1.135000000000000000e+02  6.621492149957864603e+04  2.596424021506551298e+02
1.136250000000000000e+02  6.645373589085541607e+04  2.486011248200519788e+02
1.137500000000000000e+02  6.625302844092690793e+04  2.481439045785514566e+02
1.138750000000000000e+02  6.624020038839070185e+04  2.445503548757782539e+02
1.140000000000000000e+02  6.659486152113306161e+04  2.526887086182991879e+02
1.141250000000000000e+02  6.645985781392846548e+04  2.455571752393997258e+02
1.142500000000000000e+02  6.675851834864310513e+04  2.483566207006367108e+02
1.143750000000000000e+02  6.670630065446412482e+04  2.455492860026668893e+02
1.145000000000000000e+02  6.634012118652385834e+04  2.405222622682438214e+02
1.146250000000000000e+02  6.672139779412405915e+04  2.349505212936470855e+02
1.147500000000000000e+02  6.766457249769463670e+04  2.538244548588895952e+02
1.148750000000000000e+02  6.706400715369266982e+04  2.566302005603874363e+02
1.150000000000000000e+02  6.700053021434407856e+04  2.484707061991023807e+02
1.151250000000000000e+02  6.691317401573680399e+04  2.498151875110639537e+02
1.152500000000000000e+02  6.739367804035669542e+04  2.518936645866297113e+02
1.153750000000000000e+02  6.673518622489983682e+04  2.504632741789247916e+02
1.155000000000000000e+02  6.734809010933707759e+04  2.488628161237279244e+02
1.156250000000000000e+02  6.673650374382702284e+04  2.488972781882231970e+02
1.157500000000000000e+02  6.666150228223305021e+04  2.455591294668380442e+02
1.158750000000000000e+02  6.678174165411782451e+04  2.393626187124087608e+02
1.160000000000000000e+02  6.679074757373394095e+04  2.366547554106758184e+02
1.161250000000000000e+02  6.699348199310766358e+04  2.500540247164665857e+02
1.162500000000000000e+02  6.726545023409900023e+04  2.562423617387296417e+02
1.163750000000000000e+02  6.765412400969964801e+04  2.508721259708512719e+02
1.165000000000000000e+02  6.751007399571694259e+04  2.540523271120062532e+02
1.166250000000000000e+02  6.774739566066215048e+04  2.507752802685116365e+02
1.167500000000000000e+02  6.744109169218479656e+04  2.519125649982047435e+02
1.168750000000000000e+02  6.746901867488917196e+04  2.475198234499757746e+02
1.170000000000000000e+02  6.810041379581467481e+04  2.391550138832324706e+02
1.171250000000000000e+02  6.792906087725237012e+04  2.335090428429323310e+02
1.172500000000000000e+02  6.873452977582972380e+04  2.676075933266275797e+02
1.173750000000000000e+02  6.928150145411738777e+04  2.254443220667757544e+02
1.175000000000000000e+02  6.860333124639849120e+04  3.223657094759306574e+02
1.176250000000000000e+02  6.838443135126687412e+04  2.777790121779825654e+02
1.177500000000000000e+02  6.879341049318981823e+04  2.378416507178981476e+02
1.178750000000000000e+02  6.883742448312770284e+04  2.565169962935876811e+02
1.180000000000000000e+02  6.914574315006421239e+04  2.540115205055787158e+02
1.181250000000000000e+02  6.849334099116326252e+04  2.517695181845431307e+02
1.182500000000000000e+02  6.857221226335203391e+04  2.501502873806430784e+02
1.183750000000000000e+02  6.916041860317392275e+04  2.516722019215599175e+02
1.185000000000000000e+02  6.860256557379405422e+04  2.504243660829306464e+02
1.186250000000000000e+02  6.903028584962000605e+04  2.473219036125270236e+02
1.187500000000000000e+02  6.895052418635440699e+04  2.359769971773428949e+02
1.188750000000000000e+02  6.910769499641100992e+04  2.527740166606172636e+02
1.190000000000000000e+02  6.901107669668974995e+04  2.569394169265641494e+02
1.191250000000000000e+02  6.825497867652476998e+04  2.513266842549754472e+02
1.192500000000000000e+02  6.873137092299333017e+04  2.577374057233411122e+02
1.193750000000000000e+02  6.821847064264251094e+04  2.480261732990875316e+02
1.195000000000000000e+02  6.767125574858792243e+04  2.517347884626491066e+02
1.196250000000000000e+02  6.786767651644925354e+04  2.502826232141399316e+02
1.197500000000000000e+02  6.759667981445536134e+04  2.505230811974279561e+02
1.198750000000000000e+02  6.706898042791690386e+04  2.445607723144249519e+02
1.200000000000000000e+02  6.731238012375414837e+04  2.430129004213353880e+02
1.201250000000000000e+02  6.687226784730101645e+04  2.336934429184296107e+02
1.202500000000000000e+02  6.687891984898816736e+04  2.440446445854337014e+02
1.203750000000000000e+02  6.662445964330277639e+04  2.549687433536081471e+02
1.205000000000000000e+02  6.632487632671554456e+04  2.461547034146251178e+02
1.206250000000000000e+02  6.654590637936272833e+04  2.532350290853251238e+02
1.207500000000000000e+02  6.634972357221051061e+04  2.488134072581268299e+02
1.208750000000000000e+02  6.570317885827453574e+04  2.484607107642330561e+02
1.210000000000000000e+02  6.554365796023607254e+04  2.445778065343650951e+02
1.211250000000000000e+02  6.529971665521677642e+04  2.428505798499080015e+02
1.212500000000000000e+02  6.527877083873516676e+04  2.397687309346992777e+02
1.213750000000000000e+02  6.546164339067328547e+04  2.426586610239660899e+02
1.215000000000000000e+02  6.493958559769000567e+04  2.324435475290317470e+02
1.216250000000000000e+02  6.431398319211011403e+04  2.358467396370840845e+02
1.217500000000000000e+02  6.423508675266892533e+04  2.480100693843071156e+02
1.218750000000000000e+02  6.455503395299059048e+04  2.462426412616341622e+02
1.220000000000000000e+02  6.428516544182616053e+04  2.472414929374477310e+02
1.221250000000000000e+02  6.436948770002499077e+04  2.439025689668061148e+02
1.222500000000000000e+02  6.441559277638535423e+04  2.466926098219582855e+02
1.223750000000000000e+02  6.452606056125792384e+04  2.399667038758124136e+02
1.225000000000000000e+02  6.411846484414296719e+04  2.446396653253872842e+02
1.226250000000000000e+02  6.473118264512754831e+04  2.409495739667376597e+02
1.227500000000000000e+02  6.436497458877431927e+04  2.370239034347740414e+02
1.228750000000000000e+02  6.433786201325688307e+04  2.358375956972059555e+02
1.230000000000000000e+02  6.371200459646755189e+04  2.312233715113231654e+02
1.231250000000000000e+02  6.415315623561375833e+04  2.493213751498614386e+02
1.232500000000000000e+02  6.395942446273101086e+04  2.442071171800739648e+02
1.233750000000000000e+02  6.391041280836048099e+04  2.467252506529316918e+02
1.235000000000000000e+02  6.388431160529112822e+04  2.427027005230704617e+02
1.236250000000000000e+02  6.379256378098118876e+04  2.422178374047621787e+02
1.237500000000000000e+02  6.392914401749403623e+04  2.416605249216048037e+02
1.238750000000000000e+02  6.429388105157588870e+04  2.458032545855242290e+02
1.240000000000000000e+02  6.343401621161444200e+04  2.359152762083237462e+02
1.241250000000000000e+02  6.350059455626420095e+04  2.362854736502845014e+02
1.242500000000000000e+02  6.421931616982135893e+04  2.373906117592689782e+02
1.243750000000000000e+02  6.365646782457915833e+04  2.313022654387922614e+02
1.245000000000000000e+02  6.350070821483476902e+04  2.530430891818640475e+02
1.246250000000000000e+02  6.376981699128869514e+04  2.408192059976941835e+02
1.247500000000000000e+02  6.360274060313904920e+04  2.472924773337908846e+02
1.248750000000000000e+02  6.339047589845545735e+04  2.370967847749416535e+02
1.250000000000000000e+02  6.337055670969230414e+04  2.457571093429311304e+02
1.251250000000000000e+02  6.309627639516240015e+04  2.380415383162616365e+02
1.252500000000000000e+02  6.361193886503002432e+04  2.443921141151635084e+02
1.253750000000000000e+02  6.268102520737452141e+04  2.383205581021728108e+02
1.255000000000000000e+02  6.352645839146193612e+04  2.390409680939547741e+02
1.256250000000000000e+02  6.278354153195914114e+04  2.341821883398116029e+02
1.257500000000000000e+02  6.301254545735474676e+04  2.274865608161706803e+02
1.258750000000000000e+02  6.225464443548802956e+04  2.447047713074775857e+02
1.260000000000000000e+02  6.332128053882652603e+04  2.407827312652247826e+02
1.261250000000000000e+02  6.309183420548751019e+04  2.462121530980174384e+02
1.262500000000000000e+02  6.276117744522285648e+04  2.384857204718758226e+02
1.263750000000000000e+02  6.259724309617807739e+04  2.445410044035028534e+02
1.265000000000000000e+02  6.262356462524623203e+04  2.375105486838038757e+02
1.266250000000000000e+02  6.210367878351159015e+04  2.392943291014274223e+02
1.267500000000000000e+02  6.279112406966859271e+04  2.398687851792238632e+02
1.268750000000000000e+02  6.262929583624753286e+04  2.372696320121272606e+02
1.270000000000000000e+02  6.210655190704736015e+04  2.352554660326889007e+02
1.271250000000000000e+02  6.199591633961886691e+04  2.270303527853199625e+02
1.272500000000000000e+02  6.202422549723253906e+04  2.398335693241033368e+02
1.273750000000000000e+02  6.221153591653100011e+04  2.407559246862005864e+02
1.275000000000000000e+02  6.220951463240244630e+04  2.435621630283671379e+02
1.276250000000000000e+02  6.257935042178851290e+04  2.369274412056665540e+02
1.277500000000000000e+02  6.248715786468223814e+04  2.437485239746722812e+02
1.278750000000000000e+02  6.256612730853330140e+04  2.392625493276930229e+02
1.280000000000000000e+02  6.207548031275625544e+04  2.415772411855603252e+02
1.281250000000000000e+02  6.252413237521198607e+04  2.377205967960567250e+02
1.282500000000000000e+02  6.222273471198712650e+04  2.387239061364204531e+02
1.283750000000000000e+02  6.245239410662617593e+04  2.352276755048848429e+02
1.285000000000000000e+02  6.251388664796682860e+04  2.265962857826597769e+02
1.286250000000000000e+02  6.209217911215412460e+04  2.433846087374272145e+02
1.287500000000000000e+02  6.205742247727541690e+04  2.371663577219418073e+02
1.288750000000000000e+02  6.219323986372946820e+04  2.457597396042955040e+02
1.290000000000000000e+02  6.232102013450908998e+04  2.397583069315959392e+02
1.291250000000000000e+02  6.223570023174904782e+04  2.435023714981769558e+02
1.292500000000000000e+02  6.185614521081728890e+04  2.367847872053150695e+02
1.293750000000000000e+02  6.240769967625678692e+04  2.419484730096123144e+02
1.295000000000000000e+02  6.203843100357360527e+04  2.403507346466624881e+02
1.296250000000000000e+02  6.222819344733560138e+04  2.353231996736543294e+02
1.297500000000000000e+02  6.200616461288035498e+04  2.360551449952140217e+02
1.298750000000000000e+02  6.224710886132998712e+04  2.248199140631953696e+02
1.300000000000000000e+02  6.221738686830203369e+04  2.451251789550683498e+02
1.301250000000000000e+02  6.261940830566065415e+04  2.405043519939675889e+02
1.302500000000000000e+02  6.274094044544070493e+04  2.457954373377564536e+02
1.303750000000000000e+02  6.250642911689070024e+04  2.402956202614302583e+02
1.305000000000000000e+02  6.207460889246175066e+04  2.428386334522870698e+02
1.306250000000000000e+02  6.256482968945342145e+04  2.429578461030631331e+02
1.307500000000000000e+02  6.264705300178910693e+04  2.415261228263017301e+02
1.308750000000000000e+02  6.217077272806011024e+04  2.402763215624281088e+02
1.310000000000000000e+02  6.252693659547685093e+04  2.389327948446986341e+02
1.311250000000000000e+02  6.254614304758418439e+04  2.418354347223547620e+02
1.312500000000000000e+02  6.225692986777166516e+04  2.288579331733957645e+02
1.313750000000000000e+02  6.285705261397825961e+04  2.566278131249519561e+02
1.315000000000000000e+02  6.331565734872308531e+04  2.472023415653452787e+02
1.316250000000000000e+02  6.255153910803511098e+04  2.541150320449842184e+02
1.317500000000000000e+02  6.275155928228175617e+04  2.671028901275960834e+02
1.318750000000000000e+02  6.215580933094354987e+04  3.018197044846467634e+02
1.320000000000000000e+02  6.226576831409425358e+04  8.031117637237791769e+02
