# DMC at SINQ, PSI: Sample name = Unknown, wavelength = 2.450 AA, T = 0.0 K
# Filelist='dmc:2021:567,568,570,571'
#   0.000   0.125 132.000     567., sample="Unknown"
0.000000000000000000e+00  3.452452535545360879e+05  5.719242777967236179e+03
1.250000000000000000e-01  3.447346050129982759e+05  3.985437738314418766e+03
2.500000000000000000e-01  3.499497559860769543e+05  2.594998443239921926e+03
3.750000000000000000e-01  3.473185499276752234e+05  2.588184536722110352e+03
5.000000000000000000e-01  3.431964895646497607e+05  1.947592297122986110e+03
6.250000000000000000e-01  3.556049489622669062e+05  1.967252012656069383e+03
7.500000000000000000e-01  3.503462129160894547e+05  1.628742281657112699e+03
8.750000000000000000e-01  3.409275009756219806e+05  1.537566872347859544e+03
1.000000000000000000e+00  3.517242739004823379e+05  1.571325441986983151e+03
1.125000000000000000e+00  3.482125694410200231e+05  1.316561865881909398e+03
1.250000000000000000e+00  3.456641739486951265e+05  1.373674754173351403e+03
1.375000000000000000e+00  3.507451056074140943e+05  1.208970032243543756e+03
1.500000000000000000e+00  3.507008157987679006e+05  1.282409195734426703e+03
1.625000000000000000e+00  3.510849672223728849e+05  1.147367128307061876e+03
1.750000000000000000e+00  3.489096276331325062e+05  1.196531978398433694e+03
1.875000000000000000e+00  3.514870468336855993e+05  1.073845028865318454e+03
2.000000000000000000e+00  3.517776192220955854e+05  1.117599412576043278e+03
2.125000000000000000e+00  3.491613129637333332e+05  1.005218921856162183e+03
2.250000000000000000e+00  3.484229009776330786e+05  1.002524043819819894e+03
2.375000000000000000e+00  3.482191976175906602e+05  9.707271676361665413e+02
2.500000000000000000e+00  3.468505317960470566e+05  9.356960048898366722e+02
2.625000000000000000e+00  3.466328710838883417e+05  9.611500463727912802e+02
2.750000000000000000e+00  3.430281316934818751e+05  8.875636371725702247e+02
2.875000000000000000e+00  3.428437751293028705e+05  9.052124814786637899e+02
3.000000000000000000e+00  3.460189496546463342e+05  8.657537927777833602e+02
3.125000000000000000e+00  3.421308864074568846e+05  8.468326880331929942e+02
3.250000000000000000e+00  3.421111294536358328e+05  8.504834479058608849e+02
3.375000000000000000e+00  3.384504742767920834e+05  8.047334972072936807e+02
3.500000000000000000e+00  3.410110717324306024e+05  7.865147674361680856e+02
3.625000000000000000e+00  3.393438378238285077e+05  7.745941140503539373e+02
3.750000000000000000e+00  3.372562716313017299e+05  7.720243883240274272e+02
3.875000000000000000e+00  3.343646235765325255e+05  7.426951514561467320e+02
4.000000000000000000e+00  3.380188884988473146e+05  7.537969419751817668e+02
4.125000000000000000e+00  3.337484090088270605e+05  7.258779951595308830e+02
4.250000000000000000e+00  3.318875588958546286e+05  7.209395518513831576e+02
4.375000000000000000e+00  3.318659627156948554e+05  7.156273499167066348e+02
4.500000000000000000e+00  3.309681864851015853e+05  6.797910321485759368e+02
4.625000000000000000e+00  3.277167671859723050e+05  6.958897021802982863e+02
4.750000000000000000e+00  3.289980083180521615e+05  6.569745583006612151e+02
4.875000000000000000e+00  3.265209932427371386e+05  6.804957800053523442e+02
5.000000000000000000e+00  3.273227691196482047e+05  6.293097885802935707e+02
5.125000000000000000e+00  3.249646680867966497e+05  6.556839553217905632e+02
5.250000000000000000e+00  3.244414493594752857e+05  6.318527152905279536e+02
5.375000000000000000e+00  3.241349173664397094e+05  6.475643738322814897e+02
5.500000000000000000e+00  3.222986493061520159e+05  6.165068055485691048e+02
5.625000000000000000e+00  3.207504741550436011e+05  5.961812036209138341e+02
5.750000000000000000e+00  3.171420867423216696e+05  6.084714869366885068e+02
5.875000000000000000e+00  3.196060528269550414e+05  5.857079088875464095e+02
6.000000000000000000e+00  3.178275111971226288e+05  6.045954795781218536e+02
6.125000000000000000e+00  3.150406212306389352e+05  5.688016137559724257e+02
6.250000000000000000e+00  3.143458115050743800e+05  5.785448029278459217e+02
6.375000000000000000e+00  3.135586929809723515e+05  5.557551189850885294e+02
6.500000000000000000e+00  3.119965651319001336e+05  5.635895269708777278e+02
6.625000000000000000e+00  3.084894742142913165e+05  5.385630741655927523e+02
6.750000000000000000e+00  3.060199396522294846e+05  5.440846733676098665e+02
6.875000000000000000e+00  3.022774699930374627e+05  5.201539360766896607e+02
7.000000000000000000e+00  2.990764741946013528e+05  5.297007506919369462e+02
7.125000000000000000e+00  2.967937697882216307e+05  5.147707011268146289e+02
7.250000000000000000e+00  2.861236443505332572e+05  5.186847572386761840e+02
7.375000000000000000e+00  2.785029653263149667e+05  5.206126741695873079e+02
7.500000000000000000e+00  2.711782322066088091e+05  5.143613898139452658e+02
7.625000000000000000e+00  2.632682848525544978e+05  5.007227415931563428e+02
7.750000000000000000e+00  2.530172455483910744e+05  4.950532303006410189e+02
7.875000000000000000e+00  2.490666240226094669e+05  4.824761951299979046e+02
8.000000000000000000e+00  2.408500658153922996e+05  4.793047999330921130e+02
8.125000000000000000e+00  2.391300727771070378e+05  4.726435368967245267e+02
8.250000000000000000e+00  2.315119858047864400e+05  4.602623972262155689e+02
8.375000000000000000e+00  2.296017382522292319e+05  4.736584251283504727e+02
8.500000000000000000e+00  2.230609030290512892e+05  4.499198633273954329e+02
8.625000000000000000e+00  2.180602514852027816e+05  4.533555543167440192e+02
8.750000000000000000e+00  2.197202562692868523e+05  4.495635688950907252e+02
8.875000000000000000e+00  2.112276747680903354e+05  4.456478414146105820e+02
9.000000000000000000e+00  2.130715089789315243e+05  4.396377398901814217e+02
9.125000000000000000e+00  2.061842877998425975e+05  4.133103428937058084e+02
9.250000000000000000e+00  2.066910036490721977e+05  4.417916893636311784e+02
9.375000000000000000e+00  2.022560586136053607e+05  4.040880472974997701e+02
9.500000000000000000e+00  1.987038086707356269e+05  4.375229014678076851e+02
9.625000000000000000e+00  1.980789969949782826e+05  4.051271315878797736e+02
9.750000000000000000e+00  1.920535779851412226e+05  4.166334895748552754e+02
9.875000000000000000e+00  1.925795430557069776e+05  4.031216805393714822e+02
1.000000000000000000e+01  1.885779837305807159e+05  4.009593913046537068e+02
1.012500000000000000e+01  1.875702869948425505e+05  4.059088229106473591e+02
1.025000000000000000e+01  1.863867798807673098e+05  3.985381163952532688e+02
1.037500000000000000e+01  1.865093385167773231e+05  4.067885598750179383e+02
1.050000000000000000e+01  1.829111610962751438e+05  3.819995071943448579e+02
1.062500000000000000e+01  1.840691407297572878e+05  4.016804030054278769e+02
1.075000000000000000e+01  1.826493423374770500e+05  3.882335519725663744e+02
1.087500000000000000e+01  1.832137673547389859e+05  4.006417151510670465e+02
1.100000000000000000e+01  1.813889093215317698e+05  3.940128737385534805e+02
1.112500000000000000e+01  1.821406577955507091e+05  3.955021532889249443e+02
1.125000000000000000e+01  1.813820879151662812e+05  4.018823029836885894e+02
1.137500000000000000e+01  1.798076048346193857e+05  3.968837332472756998e+02
1.150000000000000000e+01  1.811656140028108202e+05  3.984058486801881713e+02
1.162500000000000000e+01  1.792955866737970791e+05  3.971861981106337112e+02
1.175000000000000000e+01  1.806844267741691729e+05  3.995732131017251163e+02
1.187500000000000000e+01  1.789361095614658552e+05  3.874274131914306167e+02
1.200000000000000000e+01  1.777431513566295907e+05  3.986114186514378730e+02
1.212500000000000000e+01  1.781968988850842288e+05  3.828289383659794680e+02
1.225000000000000000e+01  1.793105330227968516e+05  4.093986499462706092e+02
1.237500000000000000e+01  1.781016933002375881e+05  3.846482498018875731e+02
1.250000000000000000e+01  1.775489193691701512e+05  4.084715603758162388e+02
1.262500000000000000e+01  1.766539495011493564e+05  3.927923149155112696e+02
1.275000000000000000e+01  1.763575419158320583e+05  3.983134880029160740e+02
1.287500000000000000e+01  1.761452455306783377e+05  3.880745654743341788e+02
1.300000000000000000e+01  1.767539598133988329e+05  4.060177924283142943e+02
1.312500000000000000e+01  1.750209830112055351e+05  3.921005872497708538e+02
1.325000000000000000e+01  1.756752334653986036e+05  3.907330179327631754e+02
1.337500000000000000e+01  1.752477348278287973e+05  3.946480576637167133e+02
1.350000000000000000e+01  1.740969997838806885e+05  3.831205656725551876e+02
1.362500000000000000e+01  1.737743527176844073e+05  4.043035556133906994e+02
1.375000000000000000e+01  1.741251513585004141e+05  3.842642799813777970e+02
1.387500000000000000e+01  1.741183660191916861e+05  4.032722433136111135e+02
1.400000000000000000e+01  1.723506713744357694e+05  3.905658951840010786e+02
1.412500000000000000e+01  1.734669610888680327e+05  3.985177675738336802e+02
1.425000000000000000e+01  1.720099017180139781e+05  3.883910871702275358e+02
1.437500000000000000e+01  1.725135445497165492e+05  4.042969122038829823e+02
1.450000000000000000e+01  1.704994623052219104e+05  3.579718167511319393e+02
1.462500000000000000e+01  1.725405518484739587e+05  4.071754144570194285e+02
1.475000000000000000e+01  1.708181892244904593e+05  3.920489103860936098e+02
1.487500000000000000e+01  1.709537940988404152e+05  3.934538972758570594e+02
1.500000000000000000e+01  1.707809721153389837e+05  3.969675828732632112e+02
1.512500000000000000e+01  1.696241483977363387e+05  3.904588442828363100e+02
1.525000000000000000e+01  1.710428335453473846e+05  3.985940515322810143e+02
1.537500000000000000e+01  1.707136411754867295e+05  3.939354429950945473e+02
1.550000000000000000e+01  1.715807204266446934e+05  4.059425222092511945e+02
1.562500000000000000e+01  1.711686414479733503e+05  3.849218339160636901e+02
1.575000000000000000e+01  1.711471645147025411e+05  4.044021245712690984e+02
1.587500000000000000e+01  1.721772496276408492e+05  3.912048492584110591e+02
1.600000000000000000e+01  1.708978471722938702e+05  3.906616663011324704e+02
1.612500000000000000e+01  1.706766682790897612e+05  3.871314213258192467e+02
1.625000000000000000e+01  1.714980124758664460e+05  3.977381083493807523e+02
1.637500000000000000e+01  1.685481226899956528e+05  3.877621476116704571e+02
1.650000000000000000e+01  1.685590029963446141e+05  3.960299124997560511e+02
1.662500000000000000e+01  1.675837236215449229e+05  3.862001534873659807e+02
1.675000000000000000e+01  1.667351729307855421e+05  3.922735354707004944e+02
1.687500000000000000e+01  1.649656060002970626e+05  3.840992700365679298e+02
1.700000000000000000e+01  1.656512921161089907e+05  3.923766960245604878e+02
1.712500000000000000e+01  1.650523418028792366e+05  3.914029195096039757e+02
1.725000000000000000e+01  1.653434519758599927e+05  3.900021920113200053e+02
1.737500000000000000e+01  1.644851329822016705e+05  3.821084104501494494e+02
1.750000000000000000e+01  1.640989179450815136e+05  3.777773174673671974e+02
1.762500000000000000e+01  1.640949555652852287e+05  3.911171147730588018e+02
1.775000000000000000e+01  1.640412763167370576e+05  3.783802925107283954e+02
1.787500000000000000e+01  1.639871383654313395e+05  3.924485176174194407e+02
1.800000000000000000e+01  1.632152386631402187e+05  3.812170919716738808e+02
1.812500000000000000e+01  1.635613616326402989e+05  3.927340652445387832e+02
1.825000000000000000e+01  1.646990124088028679e+05  3.857056265936760155e+02
1.837500000000000000e+01  1.637489632784344140e+05  3.946640500809471064e+02
1.850000000000000000e+01  1.637237357918110501e+05  3.886655887651320427e+02
1.862500000000000000e+01  1.634622560375676549e+05  3.913594076346914790e+02
1.875000000000000000e+01  1.626831678761700168e+05  3.706940427561362412e+02
1.887500000000000000e+01  1.625391184655639227e+05  3.906580894967827362e+02
1.900000000000000000e+01  1.636392134827838454e+05  3.789122543264851402e+02
1.912500000000000000e+01  1.621994186527798593e+05  3.909941091234040869e+02
1.925000000000000000e+01  1.614752656022553856e+05  3.855340500820948932e+02
1.937500000000000000e+01  1.624029340596447873e+05  3.898266741922705023e+02
1.950000000000000000e+01  1.629659110923764238e+05  3.842605964590314898e+02
1.962500000000000000e+01  1.619404439223435766e+05  3.912529545677089118e+02
1.975000000000000000e+01  1.622693140495569969e+05  3.917218154060334996e+02
1.987500000000000000e+01  1.616730448397736764e+05  3.896788278172718378e+02
2.000000000000000000e+01  1.617619077979043650e+05  3.915548221247477159e+02
2.012500000000000000e+01  1.629395443212407699e+05  3.779665736226560284e+02
2.025000000000000000e+01  1.619793729579140199e+05  3.892599181303503428e+02
2.037500000000000000e+01  1.612730846035827999e+05  3.768021585407580574e+02
2.050000000000000000e+01  1.623809750025248795e+05  3.921650921369123353e+02
2.062500000000000000e+01  1.621219043952528154e+05  3.911324039295449779e+02
2.075000000000000000e+01  1.619753022263640887e+05  3.886032152228285668e+02
2.087500000000000000e+01  1.639344527932882484e+05  3.890222419258676041e+02
2.100000000000000000e+01  1.657643871498408844e+05  3.981834269886172706e+02
2.112500000000000000e+01  1.671793142044998240e+05  3.954783316734495884e+02
2.125000000000000000e+01  1.689074800823366095e+05  4.020501410579504977e+02
2.137500000000000000e+01  1.690972768643613963e+05  4.012997946289034985e+02
2.150000000000000000e+01  1.678867037035162793e+05  3.919421192109868457e+02
2.162500000000000000e+01  1.653565310747605108e+05  3.807512150865761100e+02
2.175000000000000000e+01  1.642220989473635273e+05  3.982619549192360182e+02
2.187500000000000000e+01  1.623957209716750367e+05  3.832145326674512944e+02
2.200000000000000000e+01  1.615583702109967708e+05  3.971483573819890580e+02
2.212500000000000000e+01  1.612418210537515988e+05  3.877596508845410881e+02
2.225000000000000000e+01  1.603041159836298029e+05  3.927053095442294648e+02
2.237500000000000000e+01  1.608926622046440607e+05  3.887623318610395131e+02
2.250000000000000000e+01  1.595497486327158695e+05  3.964277854742556997e+02
2.262500000000000000e+01  1.588243849482114019e+05  3.858929892865136821e+02
2.275000000000000000e+01  1.590078680111831054e+05  3.953597400188305642e+02
2.287500000000000000e+01  1.597714791234606819e+05  3.800841437038495201e+02
2.300000000000000000e+01  1.595593713275308546e+05  3.888212422327158606e+02
2.312500000000000000e+01  1.576639337071299669e+05  3.792289074944417280e+02
2.325000000000000000e+01  1.588464372088290984e+05  3.836758538890445038e+02
2.337500000000000000e+01  1.594463332132747746e+05  3.880345837624962542e+02
2.350000000000000000e+01  1.580585359458895982e+05  3.879733095460317145e+02
2.362500000000000000e+01  1.580159941609974776e+05  3.902295686382366853e+02
2.375000000000000000e+01  1.587322140437383787e+05  3.867389954340336544e+02
2.387500000000000000e+01  1.587254007032960071e+05  4.006773829400510181e+02
2.400000000000000000e+01  1.578276500430935994e+05  3.820507325668226599e+02
2.412500000000000000e+01  1.589008250945218315e+05  3.952059931078831028e+02
2.425000000000000000e+01  1.576307951222883421e+05  3.876211366195445294e+02
2.437500000000000000e+01  1.585391075685511460e+05  3.803483191008642166e+02
2.450000000000000000e+01  1.585567053947048844e+05  3.832791489798704561e+02
2.462500000000000000e+01  1.593034972709482536e+05  3.924207623543682075e+02
2.475000000000000000e+01  1.577826370232491754e+05  3.920746234048609722e+02
2.487500000000000000e+01  1.577193664191380958e+05  3.864869826481958626e+02
2.500000000000000000e+01  1.571408857010568609e+05  3.887494748030268283e+02
2.512500000000000000e+01  1.580977012776258052e+05  3.921125074249425779e+02
2.525000000000000000e+01  1.576448129810779938e+05  3.913577601906927725e+02
2.537500000000000000e+01  1.578678825850500143e+05  3.870415416645951154e+02
2.550000000000000000e+01  1.576566469964150747e+05  3.932125217684821905e+02
2.562500000000000000e+01  1.577430464651163784e+05  3.965296076882194711e+02
2.575000000000000000e+01  1.586094251107289747e+05  3.826838756148448510e+02
2.587500000000000000e+01  1.573851667365954490e+05  3.777169063387453889e+02
2.600000000000000000e+01  1.584386660060435825e+05  3.949161492406542493e+02
2.612500000000000000e+01  1.586611571752595191e+05  3.880139019934600810e+02
2.625000000000000000e+01  1.587575010442439816e+05  3.966669735112510011e+02
2.637500000000000000e+01  1.587491153264314926e+05  3.927857580444558607e+02
2.650000000000000000e+01  1.580963268205796776e+05  3.878499729224443513e+02
2.662500000000000000e+01  1.582966601217477582e+05  3.987637686497620848e+02
2.675000000000000000e+01  1.578722992225029448e+05  3.942448556544616167e+02
2.687500000000000000e+01  1.571018769916469464e+05  3.935240461889618473e+02
2.700000000000000000e+01  1.574772950917188427e+05  3.904861178004447879e+02
2.712500000000000000e+01  1.581528361198900966e+05  3.843907041956998683e+02
2.725000000000000000e+01  1.581674664512923919e+05  3.872294408178873368e+02
2.737500000000000000e+01  1.591009221843842242e+05  3.836375410367642189e+02
2.750000000000000000e+01  1.588556732278475538e+05  4.049148149415220246e+02
2.762500000000000000e+01  1.598399688015884312e+05  3.909844442033177074e+02
2.775000000000000000e+01  1.589482045725651842e+05  3.932554851197612038e+02
2.787500000000000000e+01  1.585339198264273873e+05  3.976041892436994090e+02
2.800000000000000000e+01  1.583230000000000000e+05  3.978982281940948837e+02
2.812500000000000000e+01  1.567676020969809615e+05  3.961519730093195335e+02
2.825000000000000000e+01  1.570320900877501408e+05  3.965406246719533669e+02
2.837500000000000000e+01  1.564329888226334297e+05  3.910103861614410903e+02
2.850000000000000000e+01  1.579603441906047228e+05  3.882390534438045506e+02
2.862500000000000000e+01  1.559687438214466383e+05  3.870990703508273327e+02
2.875000000000000000e+01  1.566255951760341122e+05  3.888371084687790358e+02
2.887500000000000000e+01  1.564324600765145733e+05  3.938028729133859542e+02
2.900000000000000000e+01  1.561821750009522075e+05  3.958243451697314867e+02
2.912500000000000000e+01  1.566457102009251830e+05  3.563813306243161492e+02
2.925000000000000000e+01  1.559062924597169040e+05  4.044550980317241624e+02
2.937500000000000000e+01  1.560491785542590078e+05  4.084049604060728598e+02
2.950000000000000000e+01  1.567447048590279883e+05  3.979343140537819750e+02
2.962500000000000000e+01  1.572756540034477075e+05  4.031211896310366001e+02
2.975000000000000000e+01  1.569445205288644065e+05  3.952673169704807492e+02
2.987500000000000000e+01  1.567001777951220865e+05  3.907893077635454802e+02
3.000000000000000000e+01  1.563680071182627871e+05  3.951560746184950972e+02
3.012500000000000000e+01  1.569323075474819925e+05  3.891718389874288277e+02
3.025000000000000000e+01  1.569332514823012752e+05  3.949459462603202269e+02
3.037500000000000000e+01  1.576387342880530923e+05  3.959372722740140489e+02
3.050000000000000000e+01  1.582508268089621561e+05  4.005862260189957169e+02
3.062500000000000000e+01  1.589418480781397957e+05  3.989084026687850724e+02
3.075000000000000000e+01  1.582888090871325694e+05  3.997128425949092048e+02
3.087500000000000000e+01  1.584517605093041202e+05  3.987687636391490855e+02
3.100000000000000000e+01  1.576229328769579588e+05  4.031052940204329502e+02
3.112500000000000000e+01  1.567320310237272060e+05  3.953973316340296833e+02
3.125000000000000000e+01  1.573788157352599665e+05  3.911605434118291100e+02
3.137500000000000000e+01  1.568857516289823398e+05  3.848176011452680996e+02
3.150000000000000000e+01  1.565249536008751893e+05  3.944771987181662212e+02
3.162500000000000000e+01  1.557331770171443641e+05  3.959460243445660126e+02
3.175000000000000000e+01  1.548119133767450694e+05  3.870116426962750324e+02
3.187500000000000000e+01  1.546813837863133522e+05  3.973156951643040316e+02
3.200000000000000000e+01  1.552838567301100120e+05  3.966812328587466254e+02
3.212500000000000000e+01  1.571912394883238303e+05  3.964561516500110656e+02
3.225000000000000000e+01  1.550452348840093182e+05  4.017700278390043422e+02
3.237500000000000000e+01  1.551596162327291095e+05  3.962953272025150113e+02
3.250000000000000000e+01  1.556341059855574276e+05  3.968643961098304089e+02
3.262500000000000000e+01  1.552436755715142936e+05  3.879007482799627837e+02
3.275000000000000000e+01  1.563669080254300789e+05  3.941114321720723410e+02
3.287500000000000000e+01  1.556287306062247662e+05  3.918751890729825504e+02
3.300000000000000000e+01  1.554022832259605057e+05  3.954679077032936334e+02
3.312500000000000000e+01  1.565314451887803734e+05  3.973736946315903538e+02
3.325000000000000000e+01  1.555908354691281565e+05  3.964281068584623426e+02
3.337500000000000000e+01  1.565176446524443454e+05  3.979855287425336314e+02
3.350000000000000000e+01  1.564455279275300563e+05  4.035802453758849992e+02
3.362500000000000000e+01  1.559798698653358442e+05  3.985502768866674046e+02
3.375000000000000000e+01  1.556770563858467794e+05  4.022985303841512632e+02
3.387500000000000000e+01  1.554276703961261373e+05  3.985324881951952420e+02
3.400000000000000000e+01  1.560045348981508578e+05  3.956537811291474327e+02
3.412500000000000000e+01  1.566117244104055862e+05  3.851571208095097631e+02
3.425000000000000000e+01  1.558057454056743591e+05  4.012627835763701114e+02
3.437500000000000000e+01  1.570477805867173593e+05  3.983188437552284995e+02
3.450000000000000000e+01  1.571904711105048773e+05  3.970190616859697457e+02
3.462500000000000000e+01  1.599757787988149212e+05  4.074682163763212657e+02
3.475000000000000000e+01  1.595407820831519784e+05  4.042791945345637714e+02
3.487500000000000000e+01  1.612282782892035611e+05  4.050143658508350768e+02
3.500000000000000000e+01  1.629548723014891439e+05  4.164485145662402488e+02
3.512500000000000000e+01  1.621572142740297422e+05  4.121483848976559443e+02
3.525000000000000000e+01  1.619117697672543291e+05  4.098611864463407528e+02
3.537500000000000000e+01  1.593497160455789708e+05  4.027901677837050443e+02
3.550000000000000000e+01  1.581373340093389270e+05  3.918686596402369560e+02
3.562500000000000000e+01  1.583112831029705121e+05  3.910124604579211791e+02
3.575000000000000000e+01  1.578850290017715306e+05  4.078668173587909678e+02
3.587500000000000000e+01  1.567742625790978491e+05  3.991079661355639701e+02
3.600000000000000000e+01  1.571095054244940693e+05  4.034115451271891288e+02
3.612500000000000000e+01  1.569279064025796251e+05  4.015392955549722842e+02
3.625000000000000000e+01  1.561207120247863932e+05  4.079876106442839614e+02
3.637500000000000000e+01  1.564521812059387739e+05  4.035047787920460678e+02
3.650000000000000000e+01  1.555884513544288930e+05  4.066036049074357379e+02
3.662500000000000000e+01  1.579794978057062835e+05  4.108147308481579216e+02
3.675000000000000000e+01  1.562546969681158080e+05  4.064160859915148762e+02
3.687500000000000000e+01  1.575862842225169879e+05  3.874636547592464240e+02
3.700000000000000000e+01  1.569946347518803377e+05  3.981558777571825090e+02
3.712500000000000000e+01  1.570568875410551555e+05  4.006631476290480123e+02
3.725000000000000000e+01  1.572401533957865904e+05  4.038029238542697499e+02
3.737500000000000000e+01  1.570222373687133659e+05  4.062987279246087837e+02
3.750000000000000000e+01  1.562088710859706334e+05  4.014418796617187581e+02
3.762500000000000000e+01  1.560877873951514193e+05  4.081078645837599197e+02
3.775000000000000000e+01  1.570157316800264234e+05  4.055724324686078717e+02
3.787500000000000000e+01  1.570823138820595923e+05  4.156067642402915112e+02
3.800000000000000000e+01  1.570415073568411462e+05  4.040970867881685535e+02
3.812500000000000000e+01  1.564363241876930988e+05  4.087733138260062447e+02
3.825000000000000000e+01  1.560892747745667293e+05  3.817242332205366893e+02
3.837500000000000000e+01  1.580444148449229251e+05  4.035502471692195741e+02
3.850000000000000000e+01  1.585067021403138933e+05  4.067096422961798794e+02
3.862500000000000000e+01  1.585028068290843803e+05  4.041558845992558417e+02
3.875000000000000000e+01  1.593418620116935053e+05  4.132356390718401258e+02
3.887500000000000000e+01  1.595132105932223494e+05  4.077488632540693061e+02
3.900000000000000000e+01  1.600318597456738935e+05  4.117086852975189686e+02
3.912500000000000000e+01  1.598961435215059901e+05  4.124707686111542557e+02
3.925000000000000000e+01  1.585163887580015871e+05  4.078881806018173393e+02
3.937500000000000000e+01  1.581778053132894856e+05  4.171509964568111286e+02
3.950000000000000000e+01  1.590561818016813195e+05  4.137754920408162320e+02
3.962500000000000000e+01  1.563076310190378281e+05  3.887215345342000887e+02
3.975000000000000000e+01  1.559228015645371052e+05  3.964678636252539263e+02
3.987500000000000000e+01  1.564043151799124898e+05  4.018433153380013891e+02
4.000000000000000000e+01  1.565144957767529704e+05  4.039006428987134996e+02
4.012500000000000000e+01  1.565809750152699417e+05  4.050742410833711915e+02
4.025000000000000000e+01  1.561071181711874669e+05  4.081835213571957297e+02
4.037500000000000000e+01  1.570840042054222431e+05  4.082128703502770009e+02
4.050000000000000000e+01  1.566916577204958303e+05  4.045221878643002356e+02
4.062500000000000000e+01  1.547828243021067174e+05  4.126060533161451644e+02
4.075000000000000000e+01  1.558885188603481511e+05  4.043763334344565692e+02
4.087500000000000000e+01  1.547013745787853550e+05  4.103888998290049699e+02
4.100000000000000000e+01  1.543349799456667388e+05  3.917711967825752595e+02
4.112500000000000000e+01  1.549290551746418059e+05  4.001464965418575730e+02
4.125000000000000000e+01  1.547804917835629021e+05  3.982289761960707324e+02
4.137500000000000000e+01  1.549081192593631858e+05  4.020388207279916628e+02
4.150000000000000000e+01  1.556613880124297866e+05  4.065652048531348441e+02
4.162500000000000000e+01  1.540206444097252388e+05  4.048215742266011716e+02
4.175000000000000000e+01  1.546809680859022192e+05  4.080709689194231373e+02
4.187500000000000000e+01  1.551321024405705393e+05  4.060729796128708813e+02
4.200000000000000000e+01  1.553508244922162557e+05  4.100051151017266875e+02
4.212500000000000000e+01  1.540191079686148732e+05  4.053471287794179148e+02
4.225000000000000000e+01  1.559682943965860468e+05  4.084465403526273803e+02
4.237500000000000000e+01  1.570894515319569909e+05  3.940979788251690934e+02
4.250000000000000000e+01  1.583368845941478503e+05  4.010958786139451036e+02
4.262500000000000000e+01  1.577089461866498750e+05  4.016840297167759672e+02
4.275000000000000000e+01  1.591265014130532800e+05  4.056776312298964058e+02
4.287500000000000000e+01  1.585222109233389783e+05  4.027312709006970977e+02
4.300000000000000000e+01  1.577145380685900745e+05  4.061800434090824297e+02
4.312500000000000000e+01  1.543268563235543843e+05  4.006152576840039501e+02
4.325000000000000000e+01  1.535943613972883904e+05  4.000694324605651104e+02
4.337500000000000000e+01  1.523035738048397470e+05  4.000198200297657536e+02
4.350000000000000000e+01  1.488312142163006938e+05  3.901496212582013072e+02
4.362500000000000000e+01  1.486295286620912666e+05  3.978377130040014436e+02
4.375000000000000000e+01  1.484806457221628516e+05  3.669624547240659354e+02
4.387500000000000000e+01  1.469795494652432099e+05  3.586072575666635771e+02
4.400000000000000000e+01  1.464044213696018560e+05  4.054015684017039121e+02
4.412500000000000000e+01  1.456300000250985613e+05  3.821901638750238135e+02
4.425000000000000000e+01  1.459698537838963966e+05  3.929390613114624671e+02
4.437500000000000000e+01  1.473519446312024957e+05  3.876917647834387708e+02
4.450000000000000000e+01  1.463982688974408375e+05  3.826023249833165210e+02
4.462500000000000000e+01  1.466729062594731222e+05  3.851513770847005276e+02
4.475000000000000000e+01  1.470426680036756152e+05  3.869356326704659637e+02
4.487500000000000000e+01  1.477095041840962076e+05  3.865429947387656284e+02
4.500000000000000000e+01  1.466685619210370642e+05  3.852528867869671103e+02
4.512500000000000000e+01  1.470422322728950239e+05  3.733925007193794272e+02
4.525000000000000000e+01  1.473092316489593068e+05  3.787658254772163104e+02
4.537500000000000000e+01  1.489367843039541040e+05  3.855413760070345006e+02
4.550000000000000000e+01  1.480469761523631169e+05  3.840585546982580354e+02
4.562500000000000000e+01  1.500422073288339016e+05  3.955154302698672382e+02
4.575000000000000000e+01  1.501137907208009856e+05  3.909916032272475945e+02
4.587500000000000000e+01  1.512481719225152046e+05  3.959688296331498236e+02
4.600000000000000000e+01  1.533816910881540680e+05  4.010420880946299462e+02
4.612500000000000000e+01  1.551157728356082225e+05  4.086950048124049317e+02
4.625000000000000000e+01  1.569330291521074832e+05  4.017536765393159044e+02
4.637500000000000000e+01  1.601193454521020467e+05  4.195114701810489350e+02
4.650000000000000000e+01  1.608612483678509016e+05  4.102335373150248188e+02
4.662500000000000000e+01  1.621658787589036801e+05  4.011672581968305167e+02
4.675000000000000000e+01  1.625064332016847038e+05  4.171372963266105671e+02
4.687500000000000000e+01  1.621303881738109631e+05  4.110789388913709104e+02
4.700000000000000000e+01  1.595648598460996582e+05  4.178236047302991665e+02
4.712500000000000000e+01  1.598461645550093672e+05  4.150700477968980522e+02
4.725000000000000000e+01  1.579503655059295124e+05  4.168208779606145526e+02
4.737500000000000000e+01  1.571923483298634819e+05  4.116294844144559306e+02
4.750000000000000000e+01  1.561248484335286776e+05  4.224639011286300843e+02
4.762500000000000000e+01  1.557288484754486126e+05  4.151116554832432257e+02
4.775000000000000000e+01  1.551617140545023431e+05  4.225048707761006312e+02
4.787500000000000000e+01  1.549992833530163043e+05  4.088623586107779602e+02
4.800000000000000000e+01  1.546663765339901438e+05  3.955622993324999470e+02
4.812500000000000000e+01  1.551107553720679716e+05  4.047999303531231590e+02
4.825000000000000000e+01  1.569248079036930285e+05  4.118860674004912426e+02
4.837500000000000000e+01  1.567436357323961856e+05  4.163827525891935579e+02
4.850000000000000000e+01  1.561338381649407092e+05  4.105332387899655373e+02
4.862500000000000000e+01  1.556486980892130814e+05  4.151355270400941890e+02
4.875000000000000000e+01  1.559684164631591120e+05  4.189884530203024156e+02
4.887500000000000000e+01  1.562949456787750241e+05  4.227075716953607412e+02
4.900000000000000000e+01  1.562241436204766214e+05  4.202140446958315465e+02
4.912500000000000000e+01  1.558097328216271417e+05  4.188887753053072061e+02
4.925000000000000000e+01  1.570103981763314514e+05  4.227788141657511574e+02
4.937500000000000000e+01  1.583800751339797280e+05  3.982177743365527363e+02
4.950000000000000000e+01  1.621566580507131875e+05  4.160229642650374444e+02
4.962500000000000000e+01  1.658918223344057915e+05  4.265713109133113221e+02
4.975000000000000000e+01  1.687692437272967654e+05  4.247908350378037881e+02
4.987500000000000000e+01  1.733273340916410380e+05  4.446030200638105612e+02
5.000000000000000000e+01  1.754869056873263035e+05  4.442108632978979017e+02
5.012500000000000000e+01  1.767190599779849290e+05  4.453919913562289139e+02
5.025000000000000000e+01  1.767160540123696264e+05  4.494685965837163621e+02
5.037500000000000000e+01  1.752421027962593071e+05  4.457586054436749237e+02
5.050000000000000000e+01  1.730563285181401588e+05  4.435694352533599840e+02
5.062500000000000000e+01  1.687408383236230002e+05  4.374196686206014419e+02
5.075000000000000000e+01  1.653699057204583369e+05  4.110958231180412099e+02
5.087500000000000000e+01  1.616387271196778456e+05  4.180704955263838087e+02
5.100000000000000000e+01  1.584572552131367556e+05  4.087385893572410396e+02
5.112500000000000000e+01  1.569883246457543282e+05  4.219643650047008805e+02
5.125000000000000000e+01  1.554335750509374193e+05  4.157865932214865552e+02
5.137500000000000000e+01  1.556776921999040351e+05  4.274231349052789710e+02
5.150000000000000000e+01  1.552590671824625751e+05  4.165916297138401774e+02
5.162500000000000000e+01  1.552733203172672656e+05  4.231273370030452270e+02
5.175000000000000000e+01  1.549774808583471749e+05  4.164917791369780957e+02
5.187500000000000000e+01  1.539555358761126699e+05  4.201482711268158710e+02
5.200000000000000000e+01  1.556137435489298659e+05  4.206084101595012044e+02
5.212500000000000000e+01  1.550542403051289439e+05  3.995407390632628903e+02
5.225000000000000000e+01  1.551353790414015530e+05  4.104211092153493041e+02
5.237500000000000000e+01  1.537870496759271482e+05  4.113629861339010176e+02
5.250000000000000000e+01  1.548122587093303446e+05  4.178091880516037691e+02
5.262500000000000000e+01  1.540898682625368529e+05  4.130858143910785998e+02
5.275000000000000000e+01  1.547346922511159210e+05  4.224461096904335591e+02
5.287500000000000000e+01  1.538356421368788870e+05  4.092835697469529350e+02
5.300000000000000000e+01  1.536011325228849309e+05  4.226275496383073573e+02
5.312500000000000000e+01  1.539345053977283824e+05  4.143462338974568979e+02
5.325000000000000000e+01  1.535055221448992670e+05  4.247409664248492618e+02
5.337500000000000000e+01  1.548876189569323906e+05  4.172655990408104572e+02
5.350000000000000000e+01  1.553790878057467053e+05  4.048678654076315411e+02
5.362500000000000000e+01  1.548136956427615078e+05  4.039614046280470347e+02
5.375000000000000000e+01  1.538383246431046864e+05  4.119306822677804689e+02
5.387500000000000000e+01  1.531685116555938730e+05  4.141626144528343616e+02
5.400000000000000000e+01  1.521545172775371466e+05  4.043831949364554248e+02
5.412500000000000000e+01  1.525494303469408478e+05  4.156598506470317034e+02
5.425000000000000000e+01  1.519678340899337200e+05  4.100952852800497226e+02
5.437500000000000000e+01  1.518053031150093884e+05  4.176263276320613045e+02
5.450000000000000000e+01  1.519679206134609121e+05  4.075510735569070562e+02
5.462500000000000000e+01  1.524572449001758650e+05  4.225235443978327794e+02
5.475000000000000000e+01  1.512858413160705240e+05  4.100218555110428724e+02
5.487500000000000000e+01  1.510373869333137700e+05  3.956774266810868426e+02
5.500000000000000000e+01  1.509600287354509928e+05  4.014340721190625914e+02
5.512500000000000000e+01  1.518015857983993774e+05  4.073878366435798171e+02
5.525000000000000000e+01  1.504364666234585166e+05  4.051698658105876234e+02
5.537500000000000000e+01  1.507581336855926493e+05  4.041438981230556919e+02
5.550000000000000000e+01  1.492050237388457172e+05  4.087732162974379548e+02
5.562500000000000000e+01  1.485114817077586195e+05  3.997331268131279103e+02
5.575000000000000000e+01  1.492360656675661448e+05  4.121159741156218956e+02
5.587500000000000000e+01  1.477954663987194072e+05  4.019625714795574254e+02
5.600000000000000000e+01  1.483423127817738859e+05  4.110482958063458909e+02
5.612500000000000000e+01  1.464705190980199841e+05  3.966115199550886814e+02
5.625000000000000000e+01  1.473259229963631369e+05  3.879954744407531848e+02
5.637500000000000000e+01  1.491815399633347406e+05  3.857641607710854714e+02
5.650000000000000000e+01  1.521086615337547264e+05  4.010462715410271812e+02
5.662500000000000000e+01  1.550647026144359261e+05  4.078348879834849185e+02
5.675000000000000000e+01  1.582953792729875131e+05  4.141248006034498985e+02
5.687500000000000000e+01  1.602919480272306828e+05  4.185025708624111189e+02
5.700000000000000000e+01  1.643185434371519950e+05  4.221087628350086902e+02
5.712500000000000000e+01  1.661892088283526246e+05  4.401054665005636366e+02
5.725000000000000000e+01  1.668287303888196184e+05  4.330774795751623287e+02
5.737500000000000000e+01  1.665612575830471760e+05  4.376180773888011686e+02
5.750000000000000000e+01  1.662363698584269150e+05  4.324660445620589826e+02
5.762500000000000000e+01  1.635907262656343810e+05  4.269479619766453879e+02
5.775000000000000000e+01  1.619762281897406792e+05  4.100598301143097046e+02
5.787500000000000000e+01  1.603415763047394285e+05  4.232903402093204477e+02
5.800000000000000000e+01  1.552847402630347933e+05  4.127694961283129942e+02
5.812500000000000000e+01  1.551427010542385688e+05  4.232698768291564875e+02
5.825000000000000000e+01  1.536945915380003571e+05  4.215242660797534313e+02
5.837500000000000000e+01  1.541004335287081776e+05  4.270643949125524159e+02
5.850000000000000000e+01  1.545141097732215712e+05  4.116338740307623425e+02
5.862500000000000000e+01  1.531327217895458743e+05  5.347789653426613086e+02
5.875000000000000000e+01  1.541117486865720130e+05  4.087499698319666095e+02
5.887500000000000000e+01  1.561217095254466985e+05  4.044943237938023799e+02
5.900000000000000000e+01  1.536411776630539389e+05  4.056512418871840282e+02
5.912500000000000000e+01  1.551748692360440036e+05  4.007319277741000292e+02
5.925000000000000000e+01  1.540367908935995365e+05  4.119676463581250800e+02
5.937500000000000000e+01  1.544837575233227399e+05  4.185522047553495213e+02
5.950000000000000000e+01  1.545758304182959255e+05  4.172121383588771550e+02
5.962500000000000000e+01  1.558948111369106336e+05  4.285315615394192719e+02
5.975000000000000000e+01  1.569705762797011703e+05  4.280306518069868957e+02
5.987500000000000000e+01  1.571322865546033718e+05  4.328351814997344604e+02
6.000000000000000000e+01  1.588963248626049608e+05  4.272888937598233383e+02
6.012500000000000000e+01  1.613679160203938081e+05  4.442784877484644994e+02
6.025000000000000000e+01  1.630558083148892620e+05  4.338033051717188187e+02
6.037500000000000000e+01  1.649274241123913671e+05  4.484406503687094414e+02
6.050000000000000000e+01  1.652978953445629741e+05  3.994509388934557137e+02
6.062500000000000000e+01  1.663679667048990377e+05  4.313569921951951756e+02
6.075000000000000000e+01  1.674446441064665269e+05  4.402035121044207813e+02
6.087500000000000000e+01  1.671650070886393660e+05  4.351087117387721719e+02
6.100000000000000000e+01  1.662624705068315961e+05  4.412940387064409151e+02
6.112500000000000000e+01  1.660605524760803382e+05  4.371861768208912054e+02
6.125000000000000000e+01  1.636248268205789791e+05  4.493187194932289685e+02
6.137500000000000000e+01  1.615051551348954090e+05  4.308566222108012767e+02
6.150000000000000000e+01  1.613438931948261743e+05  4.409010797826579164e+02
6.162500000000000000e+01  1.590937195564245048e+05  4.302943081551132423e+02
6.175000000000000000e+01  1.567414602522522910e+05  4.327662516484267599e+02
6.187500000000000000e+01  1.563461017685148108e+05  3.966208344903599823e+02
6.200000000000000000e+01  1.558862374301039672e+05  4.185291507077816959e+02
6.212500000000000000e+01  1.546344152667145827e+05  4.224447944231759493e+02
6.225000000000000000e+01  1.555255497087481490e+05  4.221595513751069007e+02
6.237500000000000000e+01  1.554149151788683957e+05  4.328955125535550224e+02
6.250000000000000000e+01  1.550215099079401989e+05  4.215171976055676168e+02
6.262500000000000000e+01  1.549758676548774820e+05  4.275265485938050460e+02
6.275000000000000000e+01  1.574937979425161611e+05  4.265712996583842482e+02
6.287500000000000000e+01  1.566704077025560546e+05  4.373028118340070023e+02
6.300000000000000000e+01  1.582869572015034501e+05  4.304583021964152181e+02
6.312500000000000000e+01  1.601327954572954914e+05  4.377174002339381786e+02
6.325000000000000000e+01  1.634882813571814331e+05  4.097386318112236268e+02
6.337500000000000000e+01  1.647258876449977688e+05  4.300145589871502239e+02
6.350000000000000000e+01  1.659791840498409583e+05  4.346598700316799295e+02
6.362500000000000000e+01  1.676203170406216814e+05  4.421268620097122266e+02
6.375000000000000000e+01  1.692735126696328225e+05  4.457113331695745728e+02
6.387500000000000000e+01  1.692208989654386241e+05  4.431081258720487313e+02
6.400000000000000000e+01  1.675338340457529121e+05  4.482351175201624756e+02
6.412500000000000000e+01  1.678478603300650429e+05  4.430508198777219491e+02
6.425000000000000000e+01  1.678558741110159026e+05  4.523595537172367358e+02
6.437500000000000000e+01  1.656822939823812922e+05  4.330383178966284845e+02
6.450000000000000000e+01  1.637812111105989898e+05  4.550847760597887373e+02
6.462500000000000000e+01  1.611176408130234340e+05  4.112968679984975324e+02
6.475000000000000000e+01  1.589608910347996862e+05  4.194218760812656797e+02
6.487500000000000000e+01  1.575355193828135671e+05  4.230548001775248395e+02
6.500000000000000000e+01  1.573232304085525684e+05  4.266840847316511258e+02
6.512500000000000000e+01  1.550093755939184048e+05  4.260219893132762650e+02
6.525000000000000000e+01  1.545444171198721451e+05  4.208348945547058975e+02
6.537500000000000000e+01  1.542598398408973299e+05  4.267203241648533663e+02
6.550000000000000000e+01  1.558473885733122879e+05  4.321797250002003921e+02
6.562500000000000000e+01  1.548912045980863622e+05  4.295165749455057380e+02
6.575000000000000000e+01  1.556409342205598077e+05  4.285077012138877990e+02
6.587500000000000000e+01  1.539838234995885578e+05  4.455016353104164182e+02
6.600000000000000000e+01  1.547632828854975232e+05  4.047984212533356185e+02
6.612500000000000000e+01  1.548479598463252187e+05  4.111279860156806762e+02
6.625000000000000000e+01  1.572106638941683632e+05  4.236776290008081105e+02
6.637500000000000000e+01  1.583871510220066702e+05  4.313181087483992542e+02
6.650000000000000000e+01  1.596693183922778699e+05  4.314756678016531168e+02
6.662500000000000000e+01  1.603905903691491694e+05  4.327742297990150178e+02
6.675000000000000000e+01  1.605877276969644008e+05  4.368476832311424687e+02
6.687500000000000000e+01  1.636411500254762359e+05  4.396779780789183860e+02
6.700000000000000000e+01  1.641046377692353853e+05  4.489753543538927261e+02
6.712500000000000000e+01  1.641836975652864785e+05  4.405445702525047409e+02
6.725000000000000000e+01  1.641570173889790894e+05  4.571944909453659420e+02
6.737500000000000000e+01  1.650482021347798000e+05  4.129768516121253583e+02
6.750000000000000000e+01  1.648813734009319451e+05  4.226949458058626874e+02
6.762500000000000000e+01  1.635128580612529477e+05  4.307536448974872201e+02
6.775000000000000000e+01  1.619676564272555988e+05  4.306706194181609249e+02
6.787500000000000000e+01  1.609534346284958301e+05  4.355185869585733940e+02
6.800000000000000000e+01  1.587167907313975738e+05  4.299657877795971785e+02
6.812500000000000000e+01  1.577887906998933177e+05  4.307906230474412155e+02
6.825000000000000000e+01  1.558801158422504959e+05  4.327182787121648744e+02
6.837500000000000000e+01  1.554740145387090452e+05  4.462874364510371379e+02
6.850000000000000000e+01  1.552375281691528799e+05  4.243870963893111252e+02
6.862500000000000000e+01  1.551462284404193342e+05  4.351538412889586880e+02
6.875000000000000000e+01  1.530698045894175593e+05  4.087606308689401544e+02
6.887500000000000000e+01  1.541998720683193824e+05  4.078533992140112900e+02
6.900000000000000000e+01  1.546653383255213266e+05  4.176241362892250208e+02
6.912500000000000000e+01  1.542710256845185650e+05  4.190878828638879554e+02
6.925000000000000000e+01  1.533889921531026775e+05  4.190846572822180747e+02
6.937500000000000000e+01  1.540744542112147028e+05  4.211067961446989898e+02
6.950000000000000000e+01  1.554393880301817844e+05  4.331451890402254890e+02
6.962500000000000000e+01  1.535745360484972189e+05  4.310321864846030167e+02
6.975000000000000000e+01  1.536357903562784777e+05  4.382712293681960887e+02
6.987500000000000000e+01  1.530603838628716476e+05  4.190196866434052367e+02
7.000000000000000000e+01  1.542967787514955271e+05  4.427823342335619827e+02
7.012500000000000000e+01  1.535793052365760959e+05  4.055274617123844223e+02
7.025000000000000000e+01  1.550293196798164572e+05  4.051783852863346169e+02
7.037500000000000000e+01  1.538618314623458136e+05  4.121754170604116325e+02
7.050000000000000000e+01  1.525987532440339273e+05  4.173573064552019218e+02
7.062500000000000000e+01  1.529342741510753985e+05  4.145488966701817617e+02
7.075000000000000000e+01  1.526000785032309068e+05  4.218466628674264030e+02
7.087500000000000000e+01  1.524485821902594762e+05  4.296133384198998328e+02
7.100000000000000000e+01  1.520501534529659548e+05  4.235248874260257139e+02
7.112500000000000000e+01  1.512711603038333415e+05  4.256804380651037150e+02
7.125000000000000000e+01  1.512914475184116163e+05  4.188248281999378833e+02
7.137500000000000000e+01  1.507404688835965644e+05  4.337033728017313479e+02
7.150000000000000000e+01  1.504431107275823597e+05  4.071491086161223052e+02
7.162500000000000000e+01  1.505452962921581930e+05  3.858221118385067712e+02
7.175000000000000000e+01  1.488187015697872848e+05  4.001746384530461569e+02
7.187500000000000000e+01  1.490268464004336856e+05  4.079866059374795100e+02
7.200000000000000000e+01  1.490555449690846435e+05  4.136157430772639145e+02
7.212500000000000000e+01  1.487360687591423339e+05  4.125243925566256280e+02
7.225000000000000000e+01  1.495624983753652195e+05  4.202785839488320221e+02
7.237500000000000000e+01  1.495077161440583004e+05  4.168459550830058902e+02
7.250000000000000000e+01  1.481266964477023284e+05  4.182301277242070796e+02
7.262500000000000000e+01  1.472502933802005136e+05  4.109707055451779070e+02
7.275000000000000000e+01  1.479301141325875360e+05  4.259402981163271988e+02
7.287500000000000000e+01  1.482065200820381870e+05  4.093556135704708367e+02
7.300000000000000000e+01  1.488568071987147559e+05  3.755646900120677287e+02
7.312500000000000000e+01  1.496191466947968001e+05  3.524697341153353136e+02
7.325000000000000000e+01  1.475914256646171561e+05  3.821919462431091574e+02
7.337500000000000000e+01  1.485631713827031781e+05  5.378488902975020665e+02
7.350000000000000000e+01  1.492020922775656509e+05  4.115203480949999744e+02
7.362500000000000000e+01  1.477376558563359431e+05  4.155216119433164295e+02
7.375000000000000000e+01  1.493095542646971007e+05  4.142073860724082124e+02
7.387500000000000000e+01  1.485389166277109180e+05  4.135056428483742366e+02
7.400000000000000000e+01  1.482631161644480017e+05  4.100691714851437268e+02
7.412500000000000000e+01  1.486464359037879622e+05  4.245066229851048547e+02
7.425000000000000000e+01  1.474506293419653666e+05  4.037001857285747519e+02
7.437500000000000000e+01  1.472162475769297453e+05  3.714373915885890938e+02
7.450000000000000000e+01  1.466488420847996022e+05  3.896543660888327736e+02
7.462500000000000000e+01  1.460731564663751342e+05  4.019587424983093342e+02
7.475000000000000000e+01  1.453730198214566626e+05  4.047488191209674824e+02
7.487500000000000000e+01  1.449268749555978284e+05  3.980276074453144020e+02
7.500000000000000000e+01  1.441955629201328848e+05  4.089161289397631549e+02
7.512500000000000000e+01  1.446726721006224398e+05  3.938935945522392217e+02
7.525000000000000000e+01  1.440593735538723122e+05  4.075103439094121427e+02
7.537500000000000000e+01  1.441139417549305945e+05  3.965899710553468367e+02
7.550000000000000000e+01  1.447936347779771022e+05  4.146738513109243058e+02
7.562500000000000000e+01  1.434171592022007972e+05  3.924703139265674849e+02
7.575000000000000000e+01  1.450888713222922815e+05  3.747202924491607519e+02
7.587500000000000000e+01  1.448986797846801346e+05  3.860534731625365339e+02
7.600000000000000000e+01  1.464091358507588448e+05  3.998160881473028780e+02
7.612500000000000000e+01  1.463302220896948420e+05  4.017015240977030999e+02
7.625000000000000000e+01  1.467320825924224919e+05  3.953190585221573201e+02
7.637500000000000000e+01  1.474798461166060588e+05  4.070163823089064863e+02
7.650000000000000000e+01  1.489790772458026768e+05  3.983198455830549847e+02
7.662500000000000000e+01  1.488305736772632226e+05  4.137104506364356098e+02
7.675000000000000000e+01  1.487448359506276611e+05  3.961798753595856510e+02
7.687500000000000000e+01  1.497758754993174225e+05  4.252628906419707278e+02
7.700000000000000000e+01  1.512326121008904302e+05  4.026289811810981405e+02
7.712500000000000000e+01  1.524369297705436766e+05  3.911391797119405283e+02
7.725000000000000000e+01  1.518661534926214663e+05  3.845082424643119907e+02
7.737500000000000000e+01  1.520493421540931449e+05  4.004336159079867343e+02
7.750000000000000000e+01  1.494761849235853588e+05  3.999063115829453636e+02
7.762500000000000000e+01  1.501998064660397358e+05  3.972983779334264227e+02
7.775000000000000000e+01  1.492746513058681157e+05  4.034715291914048976e+02
7.787500000000000000e+01  1.480747912129885517e+05  4.000516724721910009e+02
7.800000000000000000e+01  1.476353854972225963e+05  4.073711819477176164e+02
7.812500000000000000e+01  1.449543824100879428e+05  3.901122171299941783e+02
7.825000000000000000e+01  1.445039016934405081e+05  4.172407224346259795e+02
7.837500000000000000e+01  1.426109912298416602e+05  3.951534696960679298e+02
7.850000000000000000e+01  1.432936302197354380e+05  3.727310262977407547e+02
7.862500000000000000e+01  1.424514720385823166e+05  3.718675176166306642e+02
7.875000000000000000e+01  1.415759467164900270e+05  3.833833420147531115e+02
7.887500000000000000e+01  1.418435648887611751e+05  3.874697417819704697e+02
7.900000000000000000e+01  1.406196732326041092e+05  3.836272694761136108e+02
7.912500000000000000e+01  1.408697673296351859e+05  3.875610190125727854e+02
7.925000000000000000e+01  1.390171746998794260e+05  3.819628846971014582e+02
7.937500000000000000e+01  1.398998992847160262e+05  3.904103845472840248e+02
7.950000000000000000e+01  1.405745640056656557e+05  3.909739232505868358e+02
7.962500000000000000e+01  1.402209037067785976e+05  4.068426520153535080e+02
7.975000000000000000e+01  1.392211158885201439e+05  3.938067109639566183e+02
7.987500000000000000e+01  1.404499603788423701e+05  3.698806227326919611e+02
8.000000000000000000e+01  1.405110472602693771e+05  3.628342492374007975e+02
8.012500000000000000e+01  1.398418850399549701e+05  3.779662258640304344e+02
8.025000000000000000e+01  1.396258329673946719e+05  3.764306414883212142e+02
8.037500000000000000e+01  1.385536385125380475e+05  3.728333957098635665e+02
8.050000000000000000e+01  1.384905550153647782e+05  3.936201969246029648e+02
8.062500000000000000e+01  1.390086408161986328e+05  3.769733649859091997e+02
8.075000000000000000e+01  1.386116940414272831e+05  3.977547876612891855e+02
8.087500000000000000e+01  1.393213632939371164e+05  3.807276810939644065e+02
8.100000000000000000e+01  1.394899323261764366e+05  4.095865573111088906e+02
8.112500000000000000e+01  1.379480096777954313e+05  3.864014112383705424e+02
8.125000000000000000e+01  1.385729619969179621e+05  3.700598514112067505e+02
8.137500000000000000e+01  1.381657531092546706e+05  3.542408861135668303e+02
8.150000000000000000e+01  1.379971745594198001e+05  3.682019911287715104e+02
8.162500000000000000e+01  1.381747630996983498e+05  3.721400754487672771e+02
8.175000000000000000e+01  1.374754255991778336e+05  3.666884986873953949e+02
8.187500000000000000e+01  1.377867599298287532e+05  3.826376779621746778e+02
8.200000000000000000e+01  1.371911635828394501e+05  3.709061579259760606e+02
8.212500000000000000e+01  1.379442406903676747e+05  4.065244665132447608e+02
8.225000000000000000e+01  1.383973810609760985e+05  3.841615969365079764e+02
8.237500000000000000e+01  1.374602321023094119e+05  4.022022510729121905e+02
8.250000000000000000e+01  1.369591059742205252e+05  3.817950767426542598e+02
8.262500000000000000e+01  1.371932684059242602e+05  3.720174815616866226e+02
8.275000000000000000e+01  1.383192851075312647e+05  3.418585591268863482e+02
8.287500000000000000e+01  1.387666642195309978e+05  3.632124969066976519e+02
8.300000000000000000e+01  1.383415558480612817e+05  3.741722499042990080e+02
8.312500000000000000e+01  1.369670227736153756e+05  3.612761410003887477e+02
8.325000000000000000e+01  1.383527201162941637e+05  3.785176179776796062e+02
8.337500000000000000e+01  1.392790691002249368e+05  3.883242066958437135e+02
8.350000000000000000e+01  1.389817675158164930e+05  4.045367187373749971e+02
8.362500000000000000e+01  1.392298557321589615e+05  3.803441431033353979e+02
8.375000000000000000e+01  1.401789728470464470e+05  4.100115130381078643e+02
8.387500000000000000e+01  1.392115396334818215e+05  3.775888624949292307e+02
8.400000000000000000e+01  1.397805065998485370e+05  4.100422394198925531e+02
8.412500000000000000e+01  1.393924828029734490e+05  3.187181842523644946e+02
8.425000000000000000e+01  1.390352531098080799e+05  3.580066916700905040e+02
8.437500000000000000e+01  1.389358427365774114e+05  3.714264688722145706e+02
8.450000000000000000e+01  1.374778680992226291e+05  3.517703566273328306e+02
8.462500000000000000e+01  1.385704556324439473e+05  4.066973746081038144e+02
8.475000000000000000e+01  1.382580579209081188e+05  3.752927084824183908e+02
8.487500000000000000e+01  1.388878239103664819e+05  4.031920882469293019e+02
8.500000000000000000e+01  1.385036178237276908e+05  3.838447681935949163e+02
8.512500000000000000e+01  1.381025758395907760e+05  4.030015357075577072e+02
8.525000000000000000e+01  1.384312139899240283e+05  3.824037503591251834e+02
8.537500000000000000e+01  1.363082815037373803e+05  3.816572344040472444e+02
8.550000000000000000e+01  1.374918785410129349e+05  3.206847459331415848e+02
8.562500000000000000e+01  1.372713657383190875e+05  3.460792520189770016e+02
8.575000000000000000e+01  1.367670169944467489e+05  3.564857892345962682e+02
8.587500000000000000e+01  1.360776446131759149e+05  3.675667113797800880e+02
8.600000000000000000e+01  1.361938906073159014e+05  4.035910479003744626e+02
8.612500000000000000e+01  1.371849985506647499e+05  3.734518893090759093e+02
8.625000000000000000e+01  1.367205951128066808e+05  3.976503056614150751e+02
8.637500000000000000e+01  1.364282468889544252e+05  3.785236649956881365e+02
8.650000000000000000e+01  1.379543987461626239e+05  3.994217527527013090e+02
8.662500000000000000e+01  1.369125555577187915e+05  3.768365518381964989e+02
8.675000000000000000e+01  1.372912694868639519e+05  3.952370608469259423e+02
8.687500000000000000e+01  1.386970165645115776e+05  3.086846922263586066e+02
8.700000000000000000e+01  1.376251303075549949e+05  3.352912943826462424e+02
8.712500000000000000e+01  1.370915321949609206e+05  3.743840113390905344e+02
8.725000000000000000e+01  1.369993683227594593e+05  3.769926805009055215e+02
8.737500000000000000e+01  1.377461698491832358e+05  4.020025771132865771e+02
8.750000000000000000e+01  1.374904507966652163e+05  3.778479436966915728e+02
8.762500000000000000e+01  1.371493743694237201e+05  3.936655584689035550e+02
8.775000000000000000e+01  1.372814261169985402e+05  3.767176904418196273e+02
8.787500000000000000e+01  1.368870407585650973e+05  3.243604817363795974e+02
8.800000000000000000e+01  1.464599559449704539e+05  1.068993819549125192e+03
8.812500000000000000e+01  1.375659997852867236e+05  3.436745114465708753e+02
8.825000000000000000e+01  1.378406286122876918e+05  2.931498988630320923e+02
8.837500000000000000e+01  1.356629735962072737e+05  3.339740936377344838e+02
8.850000000000000000e+01  1.359915026300403406e+05  3.953241355524428400e+02
8.862500000000000000e+01  1.356254009721165348e+05  3.707425298706173749e+02
8.875000000000000000e+01  1.354266787615500798e+05  3.912807725222582462e+02
8.887500000000000000e+01  1.352202073175609694e+05  3.732617177878964867e+02
8.900000000000000000e+01  1.352992974729560956e+05  3.931292357789503171e+02
8.912500000000000000e+01  1.352440872570674401e+05  3.713759497447846911e+02
8.925000000000000000e+01  1.359725302462743421e+05  3.962244006067908799e+02
8.937500000000000000e+01  1.354828482408146665e+05  3.721298022470582509e+02
8.950000000000000000e+01  1.355752005755230493e+05  3.969280807418396648e+02
8.962500000000000000e+01  1.360892945455633162e+05  2.703011107167298519e+02
8.975000000000000000e+01  1.355682393675826897e+05  3.683756341743426788e+02
8.987500000000000000e+01  1.360744247812484100e+05  3.939654216608162187e+02
9.000000000000000000e+01  1.360507878591496556e+05  3.680976073517986151e+02
9.012500000000000000e+01  1.363674452776794496e+05  3.933443564832608672e+02
9.025000000000000000e+01  1.373304772998760163e+05  3.715735221342051204e+02
9.037500000000000000e+01  1.366634502055216290e+05  3.990620250627443966e+02
9.050000000000000000e+01  1.374426901006510016e+05  3.718948320360634625e+02
9.062500000000000000e+01  1.366702537253307237e+05  3.907624628501415032e+02
9.075000000000000000e+01  1.378587298984055524e+05  3.781965274978275602e+02
9.087500000000000000e+01  1.373206701491476852e+05  3.688937571991889399e+02
9.100000000000000000e+01  1.384990366142583080e+05  2.810936483183429004e+02
9.112500000000000000e+01  1.374500066516163934e+05  3.717527193337743938e+02
9.125000000000000000e+01  1.380795788761764998e+05  3.945066416311782405e+02
9.137500000000000000e+01  1.368777976606625598e+05  3.692434306322905400e+02
9.150000000000000000e+01  1.367172430321591673e+05  3.978526428214843804e+02
9.162500000000000000e+01  1.375135915556813998e+05  3.687155271571905928e+02
9.175000000000000000e+01  1.366983811410527560e+05  3.975705625930682459e+02
9.187500000000000000e+01  1.358701140128613333e+05  3.641662066739021952e+02
9.200000000000000000e+01  1.367478627904378809e+05  3.957244867457957298e+02
9.212500000000000000e+01  1.356093981748709921e+05  3.708581642317508340e+02
9.225000000000000000e+01  1.358391113042225188e+05  3.293846187225066160e+02
9.237500000000000000e+01  1.365542316110627435e+05  2.970156818508093011e+02
9.250000000000000000e+01  1.350606606810904923e+05  3.670438350217088441e+02
9.262500000000000000e+01  1.358490197999264346e+05  3.939341044014039426e+02
9.275000000000000000e+01  1.363776787245681044e+05  3.747134477583498438e+02
9.287500000000000000e+01  1.350869899244549160e+05  3.832459374912425005e+02
9.300000000000000000e+01  1.353927150952788943e+05  3.731909080710797184e+02
9.312500000000000000e+01  1.362304530102264252e+05  3.932667208227231868e+02
9.325000000000000000e+01  1.353796302719370287e+05  3.631007766494602720e+02
9.337500000000000000e+01  1.357054973194247868e+05  3.882231111832059014e+02
9.350000000000000000e+01  1.354831927138511965e+05  3.447632712472980643e+02
9.362500000000000000e+01  1.354354877152869885e+05  3.376079159506269320e+02
9.375000000000000000e+01  1.367889138566541078e+05  3.075298412307170679e+02
9.387500000000000000e+01  1.359200069610633655e+05  3.670712801748419452e+02
9.400000000000000000e+01  1.359908132899042103e+05  3.886229131849478335e+02
9.412500000000000000e+01  1.367276780904321349e+05  3.747539360928794849e+02
9.425000000000000000e+01  1.365419431519516511e+05  3.843568991278422686e+02
9.437500000000000000e+01  1.366342647989023244e+05  3.724636410637794484e+02
9.450000000000000000e+01  1.367414514241818979e+05  3.848316054482596087e+02
9.462500000000000000e+01  1.362586688598784676e+05  3.745547379926957774e+02
9.475000000000000000e+01  1.358764090129926626e+05  3.653370530182868379e+02
9.487500000000000000e+01  1.362119856883650937e+05  3.454165524997250714e+02
9.500000000000000000e+01  1.365732505730261037e+05  3.408212624551284193e+02
9.512500000000000000e+01  1.368756059350476135e+05  3.163969580080005244e+02
9.525000000000000000e+01  1.362588970951703377e+05  3.686431254137091855e+02
9.537500000000000000e+01  1.367599420210037497e+05  3.908974856318841944e+02
9.550000000000000000e+01  1.351745782321315492e+05  3.645983946482062379e+02
9.562500000000000000e+01  1.355260068630969326e+05  3.820697238967904354e+02
9.575000000000000000e+01  1.358532662488229107e+05  3.697498663547659135e+02
9.587500000000000000e+01  1.353495330614033446e+05  3.842692409229727559e+02
9.600000000000000000e+01  1.349670718290350342e+05  3.563419510313669321e+02
9.612500000000000000e+01  1.354540122575512796e+05  3.591125882863055381e+02
9.625000000000000000e+01  1.364201793453573191e+05  3.507443864727963501e+02
9.637500000000000000e+01  1.351719353540649463e+05  3.430792931467419180e+02
9.650000000000000000e+01  1.368667161888116389e+05  3.229372060588068507e+02
9.662500000000000000e+01  1.361468674382352910e+05  3.509394484572351871e+02
9.675000000000000000e+01  1.374242640624657506e+05  3.873842739553141428e+02
9.687500000000000000e+01  1.363973797879618069e+05  3.654547298428923341e+02
9.700000000000000000e+01  1.369925219964078860e+05  3.894112241825789056e+02
9.712500000000000000e+01  1.367992839501797862e+05  3.677214103125659221e+02
9.725000000000000000e+01  1.362969088180973777e+05  3.734526315609459175e+02
9.737500000000000000e+01  1.356354240089721570e+05  3.501648074948153635e+02
9.750000000000000000e+01  1.362559190367443662e+05  3.594354838686355151e+02
9.762500000000000000e+01  1.363500364893508377e+05  3.486449326041724248e+02
9.775000000000000000e+01  1.366882828648246650e+05  3.443576059766246544e+02
9.787500000000000000e+01  1.365929626218530757e+05  3.279271190346775597e+02
9.800000000000000000e+01  1.363854966970873938e+05  3.414313962366970259e+02
9.812500000000000000e+01  1.365323848284601117e+05  3.831477722064404361e+02
9.825000000000000000e+01  1.354693441466428922e+05  3.600654819176392607e+02
9.837500000000000000e+01  1.345878569762246916e+05  3.756302637477110693e+02
9.850000000000000000e+01  1.334932232191246585e+05  3.463223372680940315e+02
9.862500000000000000e+01  1.333516583371396118e+05  3.640065668883582930e+02
9.875000000000000000e+01  1.327656848437932204e+05  3.340019871091978985e+02
9.887500000000000000e+01  1.318111328730743844e+05  3.499938282801520586e+02
9.900000000000000000e+01  1.322530550253769325e+05  3.403850318538493980e+02
9.912500000000000000e+01  1.305174027840198250e+05  3.308109755023603498e+02
9.925000000000000000e+01  1.311404303335609147e+05  3.252113171347653520e+02
9.937500000000000000e+01  1.296780709810034314e+05  3.116541050542659832e+02
9.950000000000000000e+01  1.302281804668925324e+05  3.687260692091231817e+02
9.962500000000000000e+01  1.296353316234537633e+05  3.441352220731302509e+02
9.975000000000000000e+01  1.281649232891883148e+05  3.536906577492181896e+02
9.987500000000000000e+01  1.279618105182696745e+05  3.269047492450384311e+02
1.000000000000000000e+02  1.279694284762085445e+05  3.400340984493690826e+02
1.001250000000000000e+02  1.277221059618547442e+05  3.328772685302162699e+02
1.002500000000000000e+02  1.278580518571125576e+05  3.374667761158635244e+02
1.003750000000000000e+02  1.280959284878718172e+05  3.242737461682445996e+02
1.005000000000000000e+02  1.280947443062315724e+05  3.249325569897371793e+02
1.006250000000000000e+02  1.291446868752718437e+05  3.224217102774347836e+02
1.007500000000000000e+02  1.288530661515556130e+05  3.104721907297231382e+02
1.008750000000000000e+02  1.284412335660368553e+05  3.554235344979415459e+02
1.010000000000000000e+02  1.293165883787848870e+05  3.393540097202784978e+02
1.011250000000000000e+02  1.295763699841331691e+05  3.512212564903919088e+02
1.012500000000000000e+02  1.310284184601467132e+05  3.340290885150693612e+02
1.013750000000000000e+02  1.315787264561267220e+05  3.497888197183904140e+02
1.015000000000000000e+02  1.313610960467504920e+05  3.371793117747847646e+02
1.016250000000000000e+02  1.326201505125579133e+05  3.472433747086954554e+02
1.017500000000000000e+02  1.330324447505503485e+05  3.393386705498908782e+02
1.018750000000000000e+02  1.338108275428397174e+05  3.437811606924394709e+02
1.020000000000000000e+02  1.348428240912338370e+05  3.394187369652541406e+02
1.021250000000000000e+02  1.354829426401499077e+05  3.215012781031796294e+02
1.022500000000000000e+02  1.344499932543674659e+05  3.673236591124427832e+02
1.023750000000000000e+02  1.346793245189484733e+05  3.471531714585339614e+02
1.025000000000000000e+02  1.355085811965589237e+05  3.103060999372272022e+02
1.026250000000000000e+02  1.346300993365934410e+05  6.351960528030215301e+02
1.027500000000000000e+02  1.360933670362435514e+05  3.205864081345015961e+02
1.028750000000000000e+02  1.367512689610420784e+05  3.493250311478964818e+02
1.030000000000000000e+02  1.377854901100800198e+05  3.600073395155889102e+02
1.031250000000000000e+02  1.380364187869405141e+05  3.564821813532172428e+02
1.032500000000000000e+02  1.379026258133100637e+05  3.512533650271827810e+02
1.033750000000000000e+02  1.385036319629059581e+05  3.476481016180453025e+02
1.035000000000000000e+02  1.389573568032149924e+05  3.317869667436605141e+02
1.036250000000000000e+02  1.383790602062837861e+05  3.706791783000882106e+02
1.037500000000000000e+02  1.385601582575370558e+05  3.619548079563817851e+02
1.038750000000000000e+02  1.384540676231547841e+05  3.669682654024306316e+02
1.040000000000000000e+02  1.378886698819392477e+05  3.562503349277865254e+02
1.041250000000000000e+02  1.384862779615530744e+05  3.669350822029965116e+02
1.042500000000000000e+02  1.396197590780887986e+05  3.584651474773031623e+02
1.043750000000000000e+02  1.399214212933305826e+05  3.643255842254289973e+02
1.045000000000000000e+02  1.408334935687150573e+05  3.569296015665824484e+02
1.046250000000000000e+02  1.411023548424452601e+05  3.596087997279804540e+02
1.047500000000000000e+02  1.403086575204656983e+05  3.531445813374749605e+02
1.048750000000000000e+02  1.420094266180464474e+05  3.305603322065495036e+02
1.050000000000000000e+02  1.417040588253737369e+05  3.725508378063302075e+02
1.051250000000000000e+02  1.421191024204120331e+05  3.625628876548784092e+02
1.052500000000000000e+02  1.423186430845813011e+05  3.791875578610575985e+02
1.053750000000000000e+02  1.414776108238002635e+05  3.630341089933619969e+02
1.055000000000000000e+02  1.428789052424376423e+05  3.700483072337910926e+02
1.056250000000000000e+02  1.426010341526773991e+05  3.636137283035551491e+02
1.057500000000000000e+02  1.434771287738271349e+05  3.719596284461154028e+02
1.058750000000000000e+02  1.422734702140577137e+05  3.638969516433101035e+02
1.060000000000000000e+02  1.432940461863512464e+05  3.586612789195636992e+02
1.061250000000000000e+02  1.436381639299626113e+05  3.598428600453381705e+02
1.062500000000000000e+02  1.433116065463442355e+05  3.276021214962640897e+02
1.063750000000000000e+02  1.432994386076265073e+05  3.794351194149161870e+02
1.065000000000000000e+02  1.428409719681218558e+05  3.599299885289364056e+02
1.066250000000000000e+02  1.428497355279338080e+05  3.769765350978472611e+02
1.067500000000000000e+02  1.427696296467877401e+05  3.636926409970178042e+02
1.068750000000000000e+02  1.423328655023103638e+05  3.733662234933446484e+02
1.070000000000000000e+02  1.424211148360017978e+05  3.597169556905006971e+02
1.071250000000000000e+02  1.426180682977376855e+05  3.682063590885185818e+02
1.072500000000000000e+02  1.425352806824913714e+05  3.654138211354426176e+02
1.073750000000000000e+02  1.419248143447697512e+05  3.572575725861861429e+02
1.075000000000000000e+02  1.431182276923207683e+05  3.557800033811784601e+02
1.076250000000000000e+02  1.424088177609866252e+05  3.253505878370808091e+02
1.077500000000000000e+02  1.420579995845526282e+05  3.781778009474778628e+02
1.078750000000000000e+02  1.416914276235616417e+05  3.642910588105696092e+02
1.080000000000000000e+02  1.426102954774652899e+05  3.745116923469376502e+02
1.081250000000000000e+02  1.419866680752874527e+05  3.635596088027551218e+02
1.082500000000000000e+02  1.423260114700660051e+05  3.693305247389048418e+02
1.083750000000000000e+02  1.430169676543818205e+05  3.678985109536192226e+02
1.085000000000000000e+02  1.424710325483513298e+05  3.700746042020431901e+02
1.086250000000000000e+02  1.432007118059163622e+05  3.625752789287695350e+02
1.087500000000000000e+02  1.436606205443150538e+05  3.590965689079453682e+02
1.088750000000000000e+02  1.437153084182742750e+05  3.550225627354674316e+02
1.090000000000000000e+02  1.444177607592733402e+05  3.424703495435837795e+02
1.091250000000000000e+02  1.440070488656130910e+05  3.585305634083796917e+02
1.092500000000000000e+02  1.438021226565912366e+05  3.692578790643426032e+02
1.093750000000000000e+02  1.440092375181619427e+05  3.783198731876118472e+02
1.095000000000000000e+02  1.433216459242130804e+05  3.624205801693980220e+02
1.096250000000000000e+02  1.444908865320052719e+05  3.699207808564049174e+02
1.097500000000000000e+02  1.447841545529410942e+05  3.732529851350666945e+02
1.098750000000000000e+02  1.447140477842172550e+05  3.726897622964547168e+02
1.100000000000000000e+02  1.455305731964716688e+05  3.629879915901574918e+02
1.101250000000000000e+02  1.467078371993272740e+05  3.649121281999722441e+02
1.102500000000000000e+02  1.454596772386726516e+05  3.581165051339316392e+02
1.103750000000000000e+02  1.462825810627975443e+05  3.464709936922843667e+02
1.105000000000000000e+02  1.461910761567774753e+05  3.620310437558551371e+02
1.106250000000000000e+02  1.453626673608557612e+05  3.687697806599157389e+02
1.107500000000000000e+02  1.459995093049540301e+05  3.794448449767780858e+02
1.108750000000000000e+02  1.446248230570326268e+05  3.667433802908316807e+02
1.110000000000000000e+02  1.460067003309598076e+05  3.772518479960581885e+02
1.111250000000000000e+02  1.457991764448260947e+05  3.689983367997197661e+02
1.112500000000000000e+02  1.447584968211980886e+05  3.652956095517130279e+02
1.113750000000000000e+02  1.453582115678724367e+05  3.648463978652102924e+02
1.115000000000000000e+02  1.450958701607362018e+05  3.566904494258515115e+02
1.116250000000000000e+02  1.458406014177021862e+05  3.631011377176507153e+02
1.117500000000000000e+02  1.451804943385524093e+05  3.510740967357097588e+02
1.118750000000000000e+02  1.453437302766144276e+05  3.512583568754717476e+02
1.120000000000000000e+02  1.460281332174393174e+05  3.710351291852985014e+02
1.121250000000000000e+02  1.466608012619071815e+05  3.694941834807058854e+02
1.122500000000000000e+02  1.453386512649307842e+05  3.879990148694206482e+02
1.123750000000000000e+02  1.464122746356420976e+05  3.769595534910429251e+02
1.125000000000000000e+02  1.450149011471512204e+05  3.603324577369838266e+02
1.126250000000000000e+02  1.467096309041785717e+05  3.696148578309875461e+02
1.127500000000000000e+02  1.453009432808540296e+05  3.691874508912713395e+02
1.128750000000000000e+02  1.453218808586799714e+05  3.617255994131227794e+02
1.130000000000000000e+02  1.448750158806029940e+05  3.577433525008772222e+02
1.131250000000000000e+02  1.453939508547355654e+05  3.507442211733878139e+02
1.132500000000000000e+02  1.452152058454710932e+05  3.534294373936975830e+02
1.133750000000000000e+02  1.465649651122684882e+05  3.687183518471731531e+02
1.135000000000000000e+02  1.460878095707526663e+05  3.856600674633687049e+02
1.136250000000000000e+02  1.459805970412133902e+05  3.684605164833945992e+02
1.137500000000000000e+02  1.460566720751416287e+05  3.684354791704441254e+02
1.138750000000000000e+02  1.461901576584970462e+05  3.633009602945152778e+02
1.140000000000000000e+02  1.473004777215812937e+05  3.758093262221634632e+02
1.141250000000000000e+02  1.467250315484141465e+05  3.648589724723932477e+02
1.142500000000000000e+02  1.459218844198881707e+05  3.671830390308515462e+02
1.143750000000000000e+02  1.479153464850918681e+05  3.656468740529011257e+02
1.145000000000000000e+02  1.462055171624395589e+05  3.570664373835937226e+02
1.146250000000000000e+02  1.464726832918833243e+05  3.481145404163817147e+02
1.147500000000000000e+02  1.482031713760454440e+05  3.756483966685986502e+02
1.148750000000000000e+02  1.471065608002350782e+05  3.800835158508861014e+02
1.150000000000000000e+02  1.470147100080860837e+05  3.680581766928092406e+02
1.151250000000000000e+02  1.480672218891660159e+05  3.716143587179878409e+02
1.152500000000000000e+02  1.479983321677504282e+05  3.732811641099754070e+02
1.153750000000000000e+02  1.483516966902480053e+05  3.734331551951989923e+02
1.155000000000000000e+02  1.481212900334701117e+05  3.690677626111031486e+02
1.156250000000000000e+02  1.478724155812687823e+05  3.704947051839196206e+02
1.157500000000000000e+02  1.476313245739696431e+05  3.654330266512008620e+02
1.158750000000000000e+02  1.484701220703154977e+05  3.569003630714368569e+02
1.160000000000000000e+02  1.474439314510467811e+05  3.516175428625093105e+02
1.161250000000000000e+02  1.483751766724571062e+05  3.721330120795851713e+02
1.162500000000000000e+02  1.487570892900200561e+05  3.810603287144594447e+02
1.163750000000000000e+02  1.496437592052290856e+05  3.731080140317673681e+02
1.165000000000000000e+02  1.487269473637480696e+05  3.770801901683108781e+02
1.166250000000000000e+02  1.485268497423053195e+05  3.713136433066745781e+02
1.167500000000000000e+02  1.489214328548377962e+05  3.743399147916364313e+02
1.168750000000000000e+02  1.483909782874429948e+05  3.670806895513044878e+02
1.170000000000000000e+02  1.483931406837406103e+05  3.530299312979304318e+02
1.171250000000000000e+02  1.502617219291723159e+05  3.472962381132681458e+02
1.172500000000000000e+02  1.486714615790612006e+05  3.935725084900868183e+02
1.173750000000000000e+02  1.491899812020122190e+05  3.308266490211001951e+02
1.175000000000000000e+02  1.497279178988057247e+05  4.762419297857400124e+02
1.176250000000000000e+02  1.486841779364937101e+05  4.095936237203634960e+02
1.177500000000000000e+02  1.500010466404040926e+05  3.512057638991718704e+02
1.178750000000000000e+02  1.501071474474890274e+05  3.787952507806464837e+02
1.180000000000000000e+02  1.505919840829403256e+05  3.748621722459645298e+02
1.181250000000000000e+02  1.490667195442459197e+05  3.714234506703260763e+02
1.182500000000000000e+02  1.493387510527762934e+05  3.691587639763305333e+02
1.183750000000000000e+02  1.514372946296387236e+05  3.724113113777050330e+02
1.185000000000000000e+02  1.505250680259794462e+05  3.709461093476915607e+02
1.186250000000000000e+02  1.518554639383949107e+05  3.668241806458369751e+02
1.187500000000000000e+02  1.509536436207862571e+05  3.491585525272311088e+02
1.188750000000000000e+02  1.516817102992293949e+05  3.744862135892659580e+02
1.190000000000000000e+02  1.512494358647564077e+05  3.803804731993673727e+02
1.191250000000000000e+02  1.515130041201002023e+05  3.744522018000448043e+02
1.192500000000000000e+02  1.515001245172687632e+05  3.826541647007917959e+02
1.193750000000000000e+02  1.512754731349172944e+05  3.693437745969540629e+02
1.195000000000000000e+02  1.513847494334796793e+05  3.765149129537730346e+02
1.196250000000000000e+02  1.525015211808830209e+05  3.751770769689527469e+02
1.197500000000000000e+02  1.525697656330798636e+05  3.763737286636474551e+02
1.198750000000000000e+02  1.525315678750231746e+05  3.688126530887289505e+02
1.200000000000000000e+02  1.527109486142669339e+05  3.660302198832329736e+02
1.201250000000000000e+02  1.535455347447908425e+05  3.541131843189665460e+02
1.202500000000000000e+02  1.542044442217149190e+05  3.705724269846621723e+02
1.203750000000000000e+02  1.533406628208066104e+05  3.868109517412444234e+02
1.205000000000000000e+02  1.536772964332108968e+05  3.746923013131116136e+02
1.206250000000000000e+02  1.537084679043352662e+05  3.848681784783710214e+02
1.207500000000000000e+02  1.547475974469288776e+05  3.799847585569517037e+02
1.208750000000000000e+02  1.542585751970071869e+05  3.807055341741522057e+02
1.210000000000000000e+02  1.547249050869663479e+05  3.757784065393535116e+02
1.211250000000000000e+02  1.550779083039514953e+05  3.742471171753584258e+02
1.212500000000000000e+02  1.557438182844665425e+05  3.703496762900553563e+02
1.213750000000000000e+02  1.576620406313108979e+05  3.765875139805565368e+02
1.215000000000000000e+02  1.560290606964228500e+05  3.603010149666960729e+02
1.216250000000000000e+02  1.566179806125392788e+05  3.680425092628934749e+02
1.217500000000000000e+02  1.584648048138945887e+05  3.895377634175018216e+02
1.218750000000000000e+02  1.581404839574460930e+05  3.854071219138531319e+02
1.220000000000000000e+02  1.580537395026784507e+05  3.876755058008292849e+02
1.221250000000000000e+02  1.588216905674347072e+05  3.831168520320096604e+02
1.222500000000000000e+02  1.592439388757096312e+05  3.878752703495075593e+02
1.223750000000000000e+02  1.604517399711135949e+05  3.784039193523899485e+02
1.225000000000000000e+02  1.604319726970958582e+05  3.869731012042599900e+02
1.226250000000000000e+02  1.611665008440302627e+05  3.801953319888560827e+02
1.227500000000000000e+02  1.604664151812891650e+05  3.742479415188656731e+02
1.228750000000000000e+02  1.612790607365089236e+05  3.733951898406756982e+02
1.230000000000000000e+02  1.608081127551982936e+05  3.673457943905878551e+02
1.231250000000000000e+02  1.613155041744499467e+05  3.953562007039552100e+02
1.232500000000000000e+02  1.616724922748440877e+05  3.882613050315845271e+02
1.233750000000000000e+02  1.622100930342063948e+05  3.930671267849037349e+02
1.235000000000000000e+02  1.621445329351757828e+05  3.866594724353030870e+02
1.236250000000000000e+02  1.627734452936654852e+05  3.869125991500243913e+02
1.237500000000000000e+02  1.631443765429435589e+05  3.860489042165172009e+02
1.238750000000000000e+02  1.638428776669871004e+05  3.923887896144340175e+02
1.240000000000000000e+02  1.640384233941281564e+05  3.793741649552805484e+02
1.241250000000000000e+02  1.637375280351080000e+05  3.794217666571246355e+02
1.242500000000000000e+02  1.650780943390216853e+05  3.806058197010230515e+02
1.243750000000000000e+02  1.641082903013906325e+05  3.713845891908052295e+02
1.245000000000000000e+02  1.651905759726697288e+05  4.081293524309378427e+02
1.246250000000000000e+02  1.651589242046456784e+05  3.875560826738509945e+02
1.247500000000000000e+02  1.648709953466767038e+05  3.981485334951694881e+02
1.248750000000000000e+02  1.635726485048250761e+05  3.808631906521390533e+02
1.250000000000000000e+02  1.654586164765583526e+05  3.971065249948107976e+02
1.251250000000000000e+02  1.643014141294943984e+05  3.841240805656715906e+02
1.252500000000000000e+02  1.646723798436389770e+05  3.932133487748901643e+02
1.253750000000000000e+02  1.656065759450754849e+05  3.873755899019724325e+02
1.255000000000000000e+02  1.663105878459227388e+05  3.867719466415360330e+02
1.256250000000000000e+02  1.653243440804901475e+05  3.800137921952714350e+02
1.257500000000000000e+02  1.653555760429934890e+05  3.685120177323268535e+02
1.258750000000000000e+02  1.647353520160179178e+05  3.980613055244887732e+02
1.260000000000000000e+02  1.657721257964579563e+05  3.895886045974843341e+02
1.261250000000000000e+02  1.660859098632120294e+05  3.994747230449142990e+02
1.262500000000000000e+02  1.660929213835319679e+05  3.879648689091955589e+02
1.263750000000000000e+02  1.658318234960604459e+05  3.980228696744763965e+02
1.265000000000000000e+02  1.660272125955661177e+05  3.867262473807959964e+02
1.266250000000000000e+02  1.660437813087358081e+05  3.912776583195656031e+02
1.267500000000000000e+02  1.662560520824886044e+05  3.903132895142921939e+02
1.268750000000000000e+02  1.667082298388275085e+05  3.871077912086315109e+02
1.270000000000000000e+02  1.663538438079587941e+05  3.850236739217991158e+02
1.271250000000000000e+02  1.657392470615899656e+05  3.712060646814273923e+02
1.272500000000000000e+02  1.669240960567929724e+05  3.934493321626499664e+02
1.273750000000000000e+02  1.658676142337918282e+05  3.931174486402720731e+02
1.275000000000000000e+02  1.666374304990792007e+05  3.986279038859734669e+02
1.276250000000000000e+02  1.668456762485391519e+05  3.868631083760857905e+02
1.277500000000000000e+02  1.670190832396543119e+05  3.985012209264813237e+02
1.278750000000000000e+02  1.674407911298858526e+05  3.914134295913876258e+02
1.280000000000000000e+02  1.672911067015930603e+05  3.965814534542354295e+02
1.281250000000000000e+02  1.676176752588315285e+05  3.892269305757053530e+02
1.282500000000000000e+02  1.682469334990154312e+05  3.925499654251964898e+02
1.283750000000000000e+02  1.688940825342668104e+05  3.868308374355502792e+02
1.285000000000000000e+02  1.693019064156141540e+05  3.729026423086592104e+02
1.286250000000000000e+02  1.688946195135288872e+05  4.014048051837148137e+02
1.287500000000000000e+02  1.680554555300957873e+05  3.902855974199546267e+02
1.288750000000000000e+02  1.702375091601144231e+05  4.065994395328858673e+02
1.290000000000000000e+02  1.706026972846670833e+05  3.966882464860281630e+02
1.291250000000000000e+02  1.706822939182888949e+05  4.032530311746214693e+02
1.292500000000000000e+02  1.706443931534268195e+05  3.932859053593697354e+02
1.293750000000000000e+02  1.721633440491770161e+05  4.018594105550309905e+02
1.295000000000000000e+02  1.727175842979533772e+05  4.010359711455882348e+02
1.296250000000000000e+02  1.730183517497501161e+05  3.923893698521084161e+02
1.297500000000000000e+02  1.742065976130189374e+05  3.956656383673446840e+02
1.298750000000000000e+02  1.743771637007200334e+05  3.762876716582839549e+02
1.300000000000000000e+02  1.747985624672316480e+05  4.108667234511029278e+02
1.301250000000000000e+02  1.753188248823262984e+05  4.024229451704375720e+02
1.302500000000000000e+02  1.762891778508358111e+05  4.120132008303444309e+02
1.303750000000000000e+02  1.761854705672254786e+05  4.034303397949896635e+02
1.305000000000000000e+02  1.767077213044889504e+05  4.097213052578800898e+02
1.306250000000000000e+02  1.780474306699367007e+05  4.098582212209615250e+02
1.307500000000000000e+02  1.784600166755683313e+05  4.076470007524736729e+02
1.308750000000000000e+02  1.788818889159731625e+05  4.075688913659585637e+02
1.310000000000000000e+02  1.793945954921524681e+05  4.047127298494805245e+02
1.311250000000000000e+02  1.791789440754555690e+05  4.093201789906844397e+02
1.312500000000000000e+02  1.803896267557291430e+05  3.895631791882290713e+02
1.313750000000000000e+02  1.814192861045151658e+05  4.359818836695338859e+02
1.315000000000000000e+02  1.813175812904768391e+05  4.183280428038525542e+02
1.316250000000000000e+02  1.829719235461470671e+05  4.346138710578813971e+02
1.317500000000000000e+02  1.838797820226937474e+05  4.572285246252944830e+02
1.318750000000000000e+02  1.856027279809170577e+05  5.215535481166342606e+02
1.320000000000000000e+02  1.951670838139826665e+05  1.421852670995409426e+03
