# DMC at SINQ, PSI: Sample name = Unknown, wavelength = 2.450 AA, T = 0.0 K
# Filelist='dmc:2022:578'
#   0.000   0.250 132.000     283., sample="Unknown"
0.000000000000000000e+00  3.214520734597218325e+04  2.465424859359996390e+03
2.500000000000000000e-01  2.755536690647535943e+04  7.654268585132044791e+02
5.000000000000000000e-01  2.767071349466091124e+04  5.635361134688522498e+02
7.500000000000000000e-01  2.826388121744516320e+04  4.799458655657521717e+02
1.000000000000000000e+00  2.794686957208641252e+04  4.196964770044245370e+02
1.250000000000000000e+00  2.790853679767061112e+04  3.817717976737571348e+02
1.500000000000000000e+00  2.769047455599332534e+04  3.427732039909376454e+02
1.750000000000000000e+00  2.786334420391038293e+04  3.151066969981831676e+02
2.000000000000000000e+00  2.776348272183218796e+04  3.074788322603248503e+02
2.250000000000000000e+00  2.771253278163914001e+04  2.843994389619592766e+02
2.500000000000000000e+00  2.752990163730203130e+04  2.701738009286381725e+02
2.750000000000000000e+00  2.774549204466467199e+04  2.546422641314419764e+02
3.000000000000000000e+00  2.755633396504584744e+04  2.405772310191530323e+02
3.250000000000000000e+00  2.786543741746489832e+04  2.364962196176543898e+02
3.500000000000000000e+00  2.763527114395252283e+04  2.294509675997331897e+02
3.750000000000000000e+00  2.784993027583117873e+04  2.222029612426860865e+02
4.000000000000000000e+00  2.768905367263374865e+04  2.122343019772835078e+02
4.250000000000000000e+00  2.742719128272398666e+04  2.050061791128433413e+02
4.500000000000000000e+00  2.791976202225632733e+04  2.001275233607462383e+02
4.750000000000000000e+00  2.763404014016558358e+04  1.949785535777427867e+02
5.000000000000000000e+00  2.742822004494443172e+04  1.891286568991942261e+02
5.250000000000000000e+00  2.733309438352474535e+04  1.851740467813214650e+02
5.500000000000000000e+00  2.789808535130725795e+04  1.813438339224562128e+02
5.750000000000000000e+00  2.767584867488927193e+04  1.771147766148201015e+02
6.000000000000000000e+00  2.762949998312286698e+04  1.725361652839534088e+02
6.250000000000000000e+00  2.780337917905854556e+04  1.696463727905398855e+02
6.500000000000000000e+00  2.764887635996587778e+04  1.663423232211072786e+02
6.750000000000000000e+00  2.755251201972567651e+04  1.619251900121515177e+02
7.000000000000000000e+00  2.743768725453005391e+04  1.587984420448342462e+02
7.250000000000000000e+00  2.701998503416794483e+04  1.562162050891277829e+02
7.500000000000000000e+00  2.642092150368104558e+04  1.602298244928026065e+02
7.750000000000000000e+00  2.589635650867134609e+04  1.577785389495812183e+02
8.000000000000000000e+00  2.624797390419843214e+04  1.594980650283376917e+02
8.250000000000000000e+00  2.609477533402201516e+04  1.567345649883368139e+02
8.500000000000000000e+00  2.611235691390845750e+04  1.522825888224306539e+02
8.750000000000000000e+00  2.593933500747208745e+04  1.541035194385409000e+02
9.000000000000000000e+00  2.639532224009321362e+04  1.540480974041915374e+02
9.250000000000000000e+00  2.601595084144551583e+04  1.530217683449797903e+02
9.500000000000000000e+00  2.567788735052991979e+04  1.510568503026012763e+02
9.750000000000000000e+00  2.575350873565853180e+04  1.487573883312431064e+02
1.000000000000000000e+01  2.572219319828333755e+04  1.484205982268614434e+02
1.025000000000000000e+01  2.553879966148045060e+04  1.469422493192240893e+02
1.050000000000000000e+01  2.606579066994663663e+04  1.493036916839421622e+02
1.075000000000000000e+01  2.592346649729619458e+04  1.484422043972417384e+02
1.100000000000000000e+01  2.617944460062673897e+04  1.513136305132163386e+02
1.125000000000000000e+01  2.585466605950137455e+04  1.474907279279077557e+02
1.150000000000000000e+01  2.586623357533894159e+04  1.494683646081404333e+02
1.175000000000000000e+01  2.600846730362618837e+04  1.506882912192153299e+02
1.200000000000000000e+01  2.594711255191240707e+04  1.516778596442493381e+02
1.225000000000000000e+01  2.610730969403278505e+04  1.511696523068935107e+02
1.250000000000000000e+01  2.620956813584117481e+04  1.520526248901195174e+02
1.275000000000000000e+01  2.587070943898225960e+04  1.511099356307143751e+02
1.300000000000000000e+01  2.637066059697264063e+04  1.520434290552731795e+02
1.325000000000000000e+01  2.641125522617245224e+04  1.535226763194186503e+02
1.350000000000000000e+01  2.623589315607475874e+04  1.524209575334999727e+02
1.375000000000000000e+01  2.691103114703253596e+04  1.556643552256669807e+02
1.400000000000000000e+01  2.864299499760018807e+04  1.570168801150369404e+02
1.425000000000000000e+01  3.123335262127471287e+04  1.662736932854498093e+02
1.450000000000000000e+01  3.369281641744329681e+04  1.719648053920253972e+02
1.475000000000000000e+01  3.307395800062803028e+04  1.741627384151748004e+02
1.500000000000000000e+01  3.158753084003902404e+04  1.708357785815018417e+02
1.525000000000000000e+01  2.980016952734513325e+04  1.631692292911057507e+02
1.550000000000000000e+01  2.815475607560899880e+04  1.602446188114248287e+02
1.575000000000000000e+01  2.697100619816368999e+04  1.548932706998375295e+02
1.600000000000000000e+01  2.649398576063670407e+04  1.556854476655006465e+02
1.625000000000000000e+01  2.603062101775772317e+04  1.548481904490909358e+02
1.650000000000000000e+01  2.636039785786780703e+04  1.543630346914498546e+02
1.675000000000000000e+01  2.603697729968644853e+04  1.514110456829575355e+02
1.700000000000000000e+01  2.619879035965779258e+04  1.548165837696184042e+02
1.725000000000000000e+01  2.622103985763372111e+04  1.541241292236292395e+02
1.750000000000000000e+01  2.637290040134249284e+04  1.547363332798757938e+02
1.775000000000000000e+01  2.601571655847713555e+04  1.538260893253291215e+02
1.800000000000000000e+01  2.581321374169923365e+04  1.532758210460766577e+02
1.825000000000000000e+01  2.584107493998293648e+04  1.523599556150259104e+02
1.850000000000000000e+01  2.612458806191553231e+04  1.550755233730599230e+02
1.875000000000000000e+01  2.579477508974488956e+04  1.549494270245870950e+02
1.900000000000000000e+01  2.617505801001642976e+04  1.549878540413666883e+02
1.925000000000000000e+01  2.620126248287354974e+04  1.563091904482695043e+02
1.950000000000000000e+01  2.613727421125808905e+04  1.528626265527655050e+02
1.975000000000000000e+01  2.596592727189166908e+04  1.542424494330220455e+02
2.000000000000000000e+01  2.613107179898848335e+04  1.548849635406766652e+02
2.025000000000000000e+01  2.586292388302678955e+04  1.565668183460373086e+02
2.050000000000000000e+01  2.614763504600018496e+04  1.568005339743674540e+02
2.075000000000000000e+01  2.595985829629821092e+04  1.549904435687212185e+02
2.100000000000000000e+01  2.603488671573442844e+04  1.532870142438124503e+02
2.125000000000000000e+01  2.593559000040878527e+04  1.555681207414404241e+02
2.150000000000000000e+01  2.616832154152775547e+04  1.574948147276328996e+02
2.175000000000000000e+01  2.592163779002415322e+04  1.552360874985541841e+02
2.200000000000000000e+01  2.588713333031101502e+04  1.580276787002056267e+02
2.225000000000000000e+01  2.593712545117464833e+04  1.533292345114307125e+02
2.250000000000000000e+01  2.617243038379057907e+04  1.579319744251889972e+02
2.275000000000000000e+01  2.601919355354606523e+04  1.553696221687076218e+02
2.300000000000000000e+01  2.642078094017492185e+04  1.591007184163500483e+02
2.325000000000000000e+01  2.584712375108433480e+04  1.578776011583053673e+02
2.350000000000000000e+01  2.586133146582744666e+04  1.567987080342455499e+02
2.375000000000000000e+01  2.612525034222048998e+04  1.542097902214692056e+02
2.400000000000000000e+01  2.614977926195728651e+04  1.575602418825138784e+02
2.425000000000000000e+01  2.598077863837057885e+04  1.575982553566976776e+02
2.450000000000000000e+01  2.621858625738482806e+04  1.594402241115801075e+02
2.475000000000000000e+01  2.590329231333981079e+04  1.590266726443385608e+02
2.500000000000000000e+01  2.619977191679439420e+04  1.560644191235456901e+02
2.525000000000000000e+01  2.616523306465399219e+04  1.571435870752231381e+02
2.550000000000000000e+01  2.590008937760908520e+04  1.568608055556233296e+02
2.575000000000000000e+01  2.616267003317312628e+04  1.604498180039906856e+02
2.600000000000000000e+01  2.619843708641531339e+04  1.593206390955728864e+02
2.625000000000000000e+01  2.619692218396768658e+04  1.607566472973384180e+02
2.650000000000000000e+01  2.656450266071033184e+04  1.564242428307593684e+02
2.675000000000000000e+01  2.632509564197235522e+04  1.591955757053380864e+02
2.700000000000000000e+01  2.665059886416896188e+04  1.617268280895674764e+02
2.725000000000000000e+01  2.657284108700388606e+04  1.611718896383843571e+02
2.750000000000000000e+01  2.713470962970272012e+04  1.635422470586911459e+02
2.775000000000000000e+01  2.783764159775117878e+04  1.630191706228565920e+02
2.800000000000000000e+01  3.031888361677064677e+04  1.712466724396272468e+02
2.825000000000000000e+01  3.756950568161481351e+04  1.904188830450840157e+02
2.850000000000000000e+01  5.422084530682260083e+04  2.332732160475863736e+02
2.875000000000000000e+01  7.196811255531896313e+04  2.678394359925977142e+02
2.900000000000000000e+01  7.558699999999998545e+04  2.749309004095392766e+02
2.925000000000000000e+01  6.129004372770040936e+04  2.336983727280348262e+02
2.950000000000000000e+01  4.369948960587885085e+04  2.094748659888041118e+02
2.975000000000000000e+01  3.301361919241937721e+04  1.823150114747263899e+02
3.000000000000000000e+01  2.867228405115477290e+04  1.716995587079989321e+02
3.025000000000000000e+01  2.710378995745623251e+04  1.645709420686957571e+02
3.050000000000000000e+01  2.671045969023619182e+04  1.622006290420804646e+02
3.075000000000000000e+01  2.648440287289506523e+04  1.598028689140520555e+02
3.100000000000000000e+01  2.635756657165674551e+04  1.617972803258523697e+02
3.125000000000000000e+01  2.637264864284767827e+04  1.630054435270927229e+02
3.150000000000000000e+01  2.634948285701734130e+04  1.635667585389830094e+02
3.175000000000000000e+01  2.622252078921858629e+04  1.628885107820167377e+02
3.200000000000000000e+01  2.670412532903405008e+04  1.601290234324725361e+02
3.225000000000000000e+01  2.778098076124487125e+04  1.657834941954091050e+02
3.250000000000000000e+01  3.054971415236820758e+04  1.759512285555475444e+02
3.275000000000000000e+01  3.427600985404004314e+04  1.867853907334058476e+02
3.300000000000000000e+01  3.583106034705698403e+04  1.910534807527239991e+02
3.325000000000000000e+01  3.415132958599928679e+04  1.853506542148327867e+02
3.350000000000000000e+01  3.022323659175483408e+04  1.708782444409091852e+02
3.375000000000000000e+01  2.770716451989717825e+04  1.677712983214508142e+02
3.400000000000000000e+01  2.677600688237594659e+04  1.656726852388236750e+02
3.425000000000000000e+01  2.574975210608066845e+04  1.621310045480745146e+02
3.450000000000000000e+01  2.591463870535328169e+04  1.636369560896476401e+02
3.475000000000000000e+01  2.607019421980527113e+04  1.614075605185428515e+02
3.500000000000000000e+01  2.584864789834195108e+04  1.603589426892735901e+02
3.525000000000000000e+01  2.607143222254843204e+04  1.644010281143307566e+02
3.550000000000000000e+01  2.599342284528954769e+04  1.625955049922702358e+02
3.575000000000000000e+01  2.604100691734072461e+04  1.653872367981152820e+02
3.600000000000000000e+01  2.586733476151929062e+04  1.653413431388541142e+02
3.625000000000000000e+01  2.605969400361315274e+04  1.585825007771384776e+02
3.650000000000000000e+01  2.603635043290899557e+04  1.631547570417613713e+02
3.675000000000000000e+01  2.628253249633896121e+04  1.671438023140264590e+02
3.700000000000000000e+01  2.614130481014539328e+04  1.645931184325729930e+02
3.725000000000000000e+01  2.581727387700239342e+04  1.651293397304162625e+02
3.750000000000000000e+01  2.556386045306047890e+04  1.606043902866038025e+02
3.775000000000000000e+01  2.604815460647035434e+04  1.634760604025265138e+02
3.800000000000000000e+01  2.589583355889995437e+04  1.643790646653147576e+02
3.825000000000000000e+01  2.570117855187226087e+04  1.650090030963559400e+02
3.850000000000000000e+01  2.575700863377164569e+04  1.634451677296061973e+02
3.875000000000000000e+01  2.561860191286651752e+04  1.651335904888576067e+02
3.900000000000000000e+01  2.591265902391607960e+04  1.611316768353841269e+02
3.925000000000000000e+01  2.586913324050265874e+04  1.629505227269810632e+02
3.950000000000000000e+01  2.578676598853113319e+04  1.651268476066789788e+02
3.975000000000000000e+01  2.562280266971171295e+04  1.643027553679619359e+02
4.000000000000000000e+01  2.630554605705448193e+04  1.676022532010337898e+02
4.025000000000000000e+01  2.663837166235846598e+04  1.652073450463432778e+02
4.050000000000000000e+01  2.688264958843948261e+04  1.656144565084851763e+02
4.075000000000000000e+01  2.669079321304866244e+04  1.680328713967351462e+02
4.100000000000000000e+01  2.622080257673569213e+04  1.669843856218157896e+02
4.125000000000000000e+01  2.590429857039600756e+04  1.663405209525909356e+02
4.150000000000000000e+01  2.573816166705858632e+04  1.672967752028332313e+02
4.175000000000000000e+01  2.568812407141195945e+04  1.601104517451074969e+02
4.200000000000000000e+01  2.591556307861465757e+04  1.635189618944017695e+02
4.225000000000000000e+01  2.591821920384776968e+04  1.644979651292678398e+02
4.250000000000000000e+01  2.578231192537083916e+04  1.665073823711651642e+02
4.275000000000000000e+01  2.607782754178415053e+04  1.653977440761692606e+02
4.300000000000000000e+01  2.582999699308363415e+04  1.621388553644011665e+02
4.325000000000000000e+01  2.630952109598227253e+04  1.612231341878980970e+02
4.350000000000000000e+01  2.630284559082550186e+04  1.632395161365728313e+02
4.375000000000000000e+01  2.623637491169904752e+04  1.553863396055595558e+02
4.400000000000000000e+01  2.656025398062366730e+04  1.736780625742911184e+02
4.425000000000000000e+01  2.665673502404919418e+04  1.685212312593617980e+02
4.450000000000000000e+01  2.627143962961840953e+04  1.564053271575114650e+02
4.475000000000000000e+01  2.616893094643434597e+04  1.604942512432619992e+02
4.500000000000000000e+01  2.606428298479479781e+04  1.612257960693999053e+02
4.525000000000000000e+01  2.572565146509408078e+04  1.615857651352933431e+02
4.550000000000000000e+01  2.601474143675286177e+04  1.634886708566190237e+02
4.575000000000000000e+01  2.630331477384418395e+04  1.644310481152259342e+02
4.600000000000000000e+01  2.665785575999499270e+04  1.618304719961853664e+02
4.625000000000000000e+01  2.705929853230342997e+04  1.685324370003638421e+02
4.650000000000000000e+01  2.895316192648453944e+04  1.756803230848412340e+02
4.675000000000000000e+01  3.329267018331401778e+04  1.903526336482030104e+02
4.700000000000000000e+01  4.046566843110064656e+04  2.117344896050639136e+02
4.725000000000000000e+01  4.838096227709213417e+04  2.240459705449882506e+02
4.750000000000000000e+01  5.179421132932641194e+04  2.349819970273248373e+02
4.775000000000000000e+01  4.831312718032916018e+04  2.294959747110223702e+02
4.800000000000000000e+01  4.067128460926525440e+04  2.123428827565934398e+02
4.825000000000000000e+01  3.344888488501283427e+04  1.932557765625093111e+02
4.850000000000000000e+01  2.921041440948092350e+04  1.821316203822198929e+02
4.875000000000000000e+01  2.734902426264482710e+04  1.671793195881070346e+02
4.900000000000000000e+01  2.689822051806719537e+04  1.711181061439621658e+02
4.925000000000000000e+01  2.657027151230473828e+04  1.723200172907941123e+02
4.950000000000000000e+01  2.631949029665883063e+04  1.724506204115034791e+02
4.975000000000000000e+01  2.592534398543674979e+04  1.708426963244480135e+02
5.000000000000000000e+01  2.640131694464559041e+04  1.669598943914321296e+02
5.025000000000000000e+01  2.679441751047498110e+04  1.697584128880301932e+02
5.050000000000000000e+01  2.650127234898394454e+04  1.718400052121576493e+02
5.075000000000000000e+01  2.744198339452048822e+04  1.761782119621295237e+02
5.100000000000000000e+01  2.689651738160148307e+04  1.737031464468480806e+02
5.125000000000000000e+01  2.659145012747300279e+04  1.742101204108404886e+02
5.150000000000000000e+01  2.676908651013160488e+04  1.678947963007595092e+02
5.175000000000000000e+01  2.633910214982878460e+04  1.712064752769047402e+02
5.200000000000000000e+01  2.613291425231151879e+04  1.713790323272627916e+02
5.225000000000000000e+01  2.637380978680611224e+04  1.734706160293294488e+02
5.250000000000000000e+01  2.621490349423731823e+04  1.734261825138033828e+02
5.275000000000000000e+01  2.650489636033647184e+04  1.679814488395929573e+02
5.300000000000000000e+01  2.686091251184522116e+04  1.709326558213854810e+02
5.325000000000000000e+01  2.804818123479571295e+04  1.771338469518709076e+02
5.350000000000000000e+01  3.065563944105774499e+04  1.854412964838288360e+02
5.375000000000000000e+01  3.281765616608022538e+04  1.928982491624965121e+02
5.400000000000000000e+01  3.426886550657333282e+04  1.963098635685336717e+02
5.425000000000000000e+01  3.441343720984226820e+04  1.902427573474894018e+02
5.450000000000000000e+01  3.318235886052002024e+04  1.897467359486402927e+02
5.475000000000000000e+01  3.029771678170056839e+04  1.824998097304601288e+02
5.500000000000000000e+01  2.831516255550123606e+04  1.795265913868266523e+02
5.525000000000000000e+01  2.673425275654881625e+04  1.730743981491164334e+02
5.550000000000000000e+01  2.628372730841314478e+04  1.684923551910575270e+02
5.575000000000000000e+01  2.561489554740814492e+04  1.636075025630985635e+02
5.600000000000000000e+01  2.538294044832619693e+04  1.637745403623765412e+02
5.625000000000000000e+01  2.540863748720575313e+04  1.655329738784255085e+02
5.650000000000000000e+01  2.505182737063445529e+04  1.661394733584493508e+02
5.675000000000000000e+01  2.507664320956747542e+04  1.681330904527415271e+02
5.700000000000000000e+01  2.554273608464738572e+04  1.619974279867031157e+02
5.725000000000000000e+01  2.570321964651932285e+04  1.664903475863996505e+02
5.750000000000000000e+01  2.615460427275046095e+04  1.702231234379529496e+02
5.775000000000000000e+01  2.620716624846110426e+04  1.747921443249836955e+02
5.800000000000000000e+01  2.603683059641403815e+04  1.743789743963076546e+02
5.825000000000000000e+01  2.564931431454903941e+04  1.720887978529005125e+02
5.850000000000000000e+01  2.614922737578128726e+04  1.722208454901359289e+02
5.875000000000000000e+01  2.631231881599003100e+04  1.748645319011753827e+02
5.900000000000000000e+01  2.627132123515935746e+04  1.681022472163884061e+02
5.925000000000000000e+01  2.651487778383848126e+04  1.760824132861119722e+02
5.950000000000000000e+01  2.765951202740273220e+04  1.807116599505680199e+02
5.975000000000000000e+01  2.846181076572442544e+04  1.760427087773466042e+02
6.000000000000000000e+01  2.978428726556164838e+04  1.822495766502981098e+02
6.025000000000000000e+01  3.138670576446529230e+04  1.914108211480884449e+02
6.050000000000000000e+01  3.189668615751011384e+04  1.925228586604854399e+02
6.075000000000000000e+01  3.188617287367848621e+04  1.940674442922935157e+02
6.100000000000000000e+01  3.093485002841802634e+04  1.909013164630273138e+02
6.125000000000000000e+01  2.970240931367904341e+04  1.768251174637024405e+02
6.150000000000000000e+01  2.861012906211692098e+04  1.806539212936609715e+02
6.175000000000000000e+01  2.880289879612190271e+04  1.839174074977892133e+02
6.200000000000000000e+01  2.970845950233087569e+04  1.868013285024346999e+02
6.225000000000000000e+01  3.269936644832822276e+04  1.970306169442594069e+02
6.250000000000000000e+01  4.123579358111738838e+04  2.126206149827155798e+02
6.275000000000000000e+01  5.791332559981938539e+04  2.556661697402419406e+02
6.300000000000000000e+01  7.942493870240515389e+04  3.034936762365994696e+02
6.325000000000000000e+01  9.909477130357135320e+04  3.420193964172746064e+02
6.350000000000000000e+01  1.124076032502219459e+05  3.639845637558348130e+02
6.375000000000000000e+01  1.151670231510170997e+05  3.726268665997010316e+02
6.400000000000000000e+01  1.051576747255235678e+05  3.338658545326903209e+02
6.425000000000000000e+01  8.451505209084553644e+04  3.111316103537408821e+02
6.450000000000000000e+01  6.123758826013849466e+04  2.690910886983112391e+02
6.475000000000000000e+01  4.357539185341764824e+04  2.256036582580726702e+02
6.500000000000000000e+01  3.370556648290315934e+04  2.004544417879857576e+02
6.525000000000000000e+01  2.971354491568691083e+04  1.821683127560719413e+02
6.550000000000000000e+01  2.837952481537189669e+04  1.792943412228511022e+02
6.575000000000000000e+01  2.807675498241103560e+04  1.804655745684223120e+02
6.600000000000000000e+01  2.752273131084538545e+04  1.809766275714265191e+02
6.625000000000000000e+01  2.763922268216349403e+04  1.812184031527342825e+02
6.650000000000000000e+01  2.764225967898961608e+04  1.840405915058122446e+02
6.675000000000000000e+01  2.747600660294252157e+04  1.724133748411179283e+02
6.700000000000000000e+01  2.773860433714348619e+04  1.766754247277821435e+02
6.725000000000000000e+01  2.736738455594292464e+04  1.784340403158761035e+02
6.750000000000000000e+01  2.670488512846255253e+04  1.768651796366120550e+02
6.775000000000000000e+01  2.684938057346701316e+04  1.819429555321443956e+02
6.800000000000000000e+01  2.595355541768888361e+04  1.716146203830366233e+02
6.825000000000000000e+01  2.618548864387820504e+04  1.714475320584261056e+02
6.850000000000000000e+01  2.623296932556530737e+04  1.718984778224086938e+02
6.875000000000000000e+01  2.583340679330486455e+04  1.752999398498949972e+02
6.900000000000000000e+01  2.582016893844393417e+04  1.773629323654602103e+02
6.925000000000000000e+01  2.623484978840632903e+04  1.782745958376228259e+02
6.950000000000000000e+01  2.638495620022425646e+04  1.679820979544508646e+02
6.975000000000000000e+01  2.576093405850021009e+04  1.698293447155059539e+02
7.000000000000000000e+01  2.586171052328394580e+04  1.722889304462964049e+02
7.025000000000000000e+01  2.609040567610051949e+04  1.773749743049532981e+02
7.050000000000000000e+01  2.612111668980637478e+04  1.770770563204449104e+02
7.075000000000000000e+01  2.590954824811879735e+04  1.721004393844994809e+02
7.100000000000000000e+01  2.613779376129410230e+04  1.664591283594170079e+02
7.125000000000000000e+01  2.622282745916500062e+04  1.717803960945199435e+02
7.150000000000000000e+01  2.662373045616614036e+04  1.771532996308951624e+02
7.175000000000000000e+01  2.693046946643666524e+04  1.780821281827460609e+02
7.200000000000000000e+01  2.848145778332685950e+04  1.835451828530799219e+02
7.225000000000000000e+01  2.986683731978392461e+04  1.761204947269251591e+02
7.250000000000000000e+01  3.108134506413130657e+04  1.831867500762201928e+02
7.275000000000000000e+01  3.235778339804482675e+04  1.927664225224002053e+02
7.300000000000000000e+01  3.265764418046856008e+04  1.943253416297933143e+02
7.325000000000000000e+01  3.223180343435698887e+04  1.860253064257459243e+02
7.350000000000000000e+01  3.085639135316152897e+04  1.952623316390399566e+02
7.375000000000000000e+01  2.956992182711998248e+04  1.729442212455858225e+02
7.400000000000000000e+01  2.845645985184307938e+04  1.781488749503436111e+02
7.425000000000000000e+01  2.697195772549945104e+04  1.743176357491292379e+02
7.450000000000000000e+01  2.621794812272447598e+04  1.728760304462825275e+02
7.475000000000000000e+01  2.629054523838133537e+04  1.744043057412532107e+02
7.500000000000000000e+01  2.624662485338381521e+04  1.629659412237132585e+02
7.525000000000000000e+01  2.600145754536147433e+04  1.647411573636609319e+02
7.550000000000000000e+01  2.660757753618793140e+04  1.703166212342929100e+02
7.575000000000000000e+01  2.704066582049833960e+04  1.733625361815153951e+02
7.600000000000000000e+01  2.674566860957985409e+04  1.742915955396427989e+02
7.625000000000000000e+01  2.675376717105673742e+04  1.717987966085570122e+02
7.650000000000000000e+01  2.651972327400880749e+04  1.619375997602644759e+02
7.675000000000000000e+01  2.630346248961022138e+04  1.681393313722706182e+02
7.700000000000000000e+01  2.605427022827040855e+04  1.694768165513657436e+02
7.725000000000000000e+01  2.630242442410781223e+04  1.699337201385721130e+02
7.750000000000000000e+01  2.654234411098375494e+04  1.709423526758598371e+02
7.775000000000000000e+01  2.694342147226072848e+04  1.660424252826038582e+02
7.800000000000000000e+01  2.769637452435386149e+04  1.675677831812971590e+02
7.825000000000000000e+01  2.880444344102788455e+04  1.746172872712741935e+02
7.850000000000000000e+01  3.013633295436284243e+04  1.793448122807905634e+02
7.875000000000000000e+01  3.087631552862371609e+04  1.833431549832690166e+02
7.900000000000000000e+01  3.159281979030132788e+04  1.904495527309497618e+02
7.925000000000000000e+01  3.148527398473158610e+04  1.731031753136813336e+02
7.950000000000000000e+01  3.187932621002115411e+04  1.810594855973081394e+02
7.975000000000000000e+01  3.081930394184802572e+04  1.806039067553703887e+02
8.000000000000000000e+01  3.034163621537425206e+04  1.806433836350418858e+02
8.025000000000000000e+01  2.932706249231832408e+04  1.813493948970684926e+02
8.050000000000000000e+01  2.897041490420129776e+04  1.739125994963031019e+02
8.075000000000000000e+01  2.989137909331787523e+04  1.685767889644527315e+02
8.100000000000000000e+01  3.168817085648740613e+04  1.783332682147702712e+02
8.125000000000000000e+01  3.482606815129688039e+04  1.905597665749228327e+02
8.150000000000000000e+01  3.816343741353101359e+04  2.055186607963302379e+02
8.175000000000000000e+01  4.112693032036086515e+04  2.143277998522761152e+02
8.200000000000000000e+01  4.412264150099324615e+04  2.029769916352249197e+02
8.225000000000000000e+01  4.507536072920857987e+04  2.102907079378322237e+02
8.250000000000000000e+01  4.525732871725738369e+04  2.137587607654835153e+02
8.275000000000000000e+01  4.364492033089359029e+04  2.197210542496209484e+02
8.300000000000000000e+01  4.139656155487284559e+04  2.153123367782247612e+02
8.325000000000000000e+01  3.808456058981319802e+04  1.993792099892034742e+02
8.350000000000000000e+01  3.430074785076968692e+04  1.722025777188408995e+02
8.375000000000000000e+01  3.150396367984604876e+04  1.739276789361269948e+02
8.400000000000000000e+01  3.035797125910117393e+04  1.793380895795713172e+02
8.425000000000000000e+01  3.062838312922223849e+04  1.852459170671346556e+02
8.450000000000000000e+01  3.141414128899374191e+04  1.851706934430660567e+02
8.475000000000000000e+01  3.238708287421686327e+04  1.705930628554341695e+02
8.500000000000000000e+01  3.388800031608701829e+04  1.779247014882668907e+02
8.525000000000000000e+01  3.437148442302800686e+04  1.864466787758756539e+02
8.550000000000000000e+01  3.505474086860181706e+04  1.997558954346648079e+02
8.575000000000000000e+01  3.474087443652953516e+04  1.937899819821556662e+02
8.600000000000000000e+01  3.374473298075873754e+04  1.932693100513681941e+02
8.625000000000000000e+01  3.239804317567637190e+04  1.568586071437943019e+02
8.650000000000000000e+01  3.084357652303831128e+04  1.753806972817512531e+02
8.675000000000000000e+01  2.924265817255553338e+04  1.782591903154536226e+02
8.700000000000000000e+01  2.771040712974087364e+04  1.742448319135414465e+02
8.725000000000000000e+01  2.682163660274122958e+04  1.704516399525624877e+02
8.750000000000000000e+01  2.604900670363536847e+04  1.480463502879677833e+02
8.775000000000000000e+01  2.562148728870911873e+04  1.403269476786891232e+02
8.800000000000000000e+01  2.589710061180826960e+04  1.999433366468198585e+02
8.825000000000000000e+01  2.569956434769689440e+04  1.662018957944829936e+02
8.850000000000000000e+01  2.534694611977609748e+04  1.660997084164640683e+02
8.875000000000000000e+01  2.563540690148682552e+04  1.653518725704552992e+02
8.900000000000000000e+01  2.539011847688016496e+04  1.338939409626658517e+02
8.925000000000000000e+01  2.572590438947868461e+04  1.668439213036762965e+02
8.950000000000000000e+01  2.556949383412818133e+04  1.656450015315242581e+02
8.975000000000000000e+01  2.528969497569126543e+04  1.646288683434276550e+02
9.000000000000000000e+01  2.555539586692408193e+04  1.646748664728507094e+02
9.025000000000000000e+01  2.549960304614249981e+04  1.364298060837829780e+02
9.050000000000000000e+01  2.573565622765798980e+04  1.649044077130962478e+02
9.075000000000000000e+01  2.606735054314668014e+04  1.660745102698505207e+02
9.100000000000000000e+01  2.599506258689476090e+04  1.679409183227972449e+02
9.125000000000000000e+01  2.617982352980427459e+04  1.666322067825126965e+02
9.150000000000000000e+01  2.600310133778757881e+04  1.555149332230527932e+02
9.175000000000000000e+01  2.629634832323525188e+04  1.414600186943941367e+02
9.200000000000000000e+01  2.622555802072940423e+04  1.677853800309925134e+02
9.225000000000000000e+01  2.655610850522599139e+04  1.675772796764919121e+02
9.250000000000000000e+01  2.621264855361424634e+04  1.652783655128505416e+02
9.275000000000000000e+01  2.639849351758025296e+04  1.647237679065792690e+02
9.300000000000000000e+01  2.581050660617371977e+04  1.387000295913807406e+02
9.325000000000000000e+01  2.568761620097223567e+04  1.631000852805495356e+02
9.350000000000000000e+01  2.604338456189194767e+04  1.667120207501179721e+02
9.375000000000000000e+01  2.613140829434314946e+04  1.654914446693849754e+02
9.400000000000000000e+01  2.585012763862574138e+04  1.626695264759485724e+02
9.425000000000000000e+01  2.611126337571469776e+04  1.496083409886509230e+02
9.450000000000000000e+01  2.637319267734234745e+04  1.478307756471211007e+02
9.475000000000000000e+01  2.622105460447860969e+04  1.654992356329839254e+02
9.500000000000000000e+01  2.621425816778685112e+04  1.648271749430974182e+02
9.525000000000000000e+01  2.684578304708908763e+04  1.685848630156070840e+02
9.550000000000000000e+01  2.660738056556853189e+04  1.556093603528225344e+02
9.575000000000000000e+01  2.676736495673729951e+04  1.449874267366761558e+02
9.600000000000000000e+01  2.694417521913408564e+04  1.676204657675054079e+02
9.625000000000000000e+01  2.706378117659751661e+04  1.691717628869885743e+02
9.650000000000000000e+01  2.746536127987706277e+04  1.668155676415603352e+02
9.675000000000000000e+01  2.846633657783005765e+04  1.619000394606719908e+02
9.700000000000000000e+01  2.932458953798954099e+04  1.617676044386584522e+02
9.725000000000000000e+01  3.091333678101984697e+04  1.594912448045757287e+02
9.750000000000000000e+01  3.263847584451557123e+04  1.828808930345407191e+02
9.775000000000000000e+01  3.368966218400320213e+04  1.845904973132596467e+02
9.800000000000000000e+01  3.546229174735553534e+04  1.818244375227336889e+02
9.825000000000000000e+01  3.636017428525622381e+04  1.816193428024537582e+02
9.850000000000000000e+01  3.772747235055778583e+04  1.774904472951060654e+02
9.875000000000000000e+01  3.764869336733172531e+04  1.835015807790622091e+02
9.900000000000000000e+01  3.748543723431190301e+04  1.933138112985564874e+02
9.925000000000000000e+01  3.753056420136177621e+04  1.828150999261400500e+02
9.950000000000000000e+01  3.604093780041432183e+04  1.769457220421658405e+02
9.975000000000000000e+01  3.448944841504092619e+04  1.696334591818173578e+02
1.000000000000000000e+02  3.256181721306143299e+04  1.582237495331842183e+02
1.002500000000000000e+02  3.108062737197383831e+04  1.709973873533946005e+02
1.005000000000000000e+02  2.951296105921093840e+04  1.623921651751022353e+02
1.007500000000000000e+02  2.801852207820290278e+04  1.560224514207864104e+02
1.010000000000000000e+02  2.696527312932580026e+04  1.524410887934917298e+02
1.012500000000000000e+02  2.657595285806297034e+04  1.487897735476008449e+02
1.015000000000000000e+02  2.622152843703353938e+04  1.507457477010568994e+02
1.017500000000000000e+02  2.636712201122392071e+04  1.563472683107832495e+02
1.020000000000000000e+02  2.600702253267862034e+04  1.542526941555119890e+02
1.022500000000000000e+02  2.596457704709574318e+04  1.522410557631368704e+02
1.025000000000000000e+02  2.618852899505146706e+04  1.548668485031726618e+02
1.027500000000000000e+02  2.630253887980571017e+04  1.478254040778178080e+02
1.030000000000000000e+02  2.605957920816240949e+04  1.590625910882369851e+02
1.032500000000000000e+02  2.618497905039284888e+04  1.563567972458508564e+02
1.035000000000000000e+02  2.574653434402385756e+04  1.555206377328344161e+02
1.037500000000000000e+02  2.587711268326722711e+04  1.559230049541504286e+02
1.040000000000000000e+02  2.560790001373918858e+04  1.513671254843433474e+02
1.042500000000000000e+02  2.539520984244905776e+04  1.488744726154775719e+02
1.045000000000000000e+02  2.548105496454663808e+04  1.546637305469715500e+02
1.047500000000000000e+02  2.554273416388770420e+04  1.550495331656458688e+02
1.050000000000000000e+02  2.550600089609470524e+04  1.544032784223002750e+02
1.052500000000000000e+02  2.504967779109803814e+04  1.527107129193385902e+02
1.055000000000000000e+02  2.496994769106974854e+04  1.419434549722085706e+02
1.057500000000000000e+02  2.518142289938495014e+04  1.560785359456259016e+02
1.060000000000000000e+02  2.510636502132429450e+04  1.545365571476077662e+02
1.062500000000000000e+02  2.521704535503848456e+04  1.551473034285490940e+02
1.065000000000000000e+02  2.553732049722901866e+04  1.541697261940556984e+02
1.067500000000000000e+02  2.517899833542250053e+04  1.504518042445113792e+02
1.070000000000000000e+02  2.536859104046781795e+04  1.457267244447857024e+02
1.072500000000000000e+02  2.523597910501230945e+04  1.558756810230584335e+02
1.075000000000000000e+02  2.543155701797620350e+04  1.552263745104612553e+02
1.077500000000000000e+02  2.557064966080230442e+04  1.556641476485810358e+02
1.080000000000000000e+02  2.476910073512549570e+04  1.498847130079709018e+02
1.082500000000000000e+02  2.527996241693828415e+04  1.442991687130872549e+02
1.085000000000000000e+02  2.540686720235470784e+04  1.550930104579452120e+02
1.087500000000000000e+02  2.531973856340261045e+04  1.556760311858716648e+02
1.090000000000000000e+02  2.517995835472257022e+04  1.548693052595573079e+02
1.092500000000000000e+02  2.506723124099853158e+04  1.522473066925460898e+02
1.095000000000000000e+02  2.514502380571145841e+04  1.488183896681759393e+02
1.097500000000000000e+02  2.554903867624261329e+04  1.483304890395172322e+02
1.100000000000000000e+02  2.573420510626093892e+04  1.573141193738698860e+02
1.102500000000000000e+02  2.554112784719587580e+04  1.561046663458279511e+02
1.105000000000000000e+02  2.555673328582919567e+04  1.540261100561212686e+02
1.107500000000000000e+02  2.577456414508419039e+04  1.523123620219490135e+02
1.110000000000000000e+02  2.630150203257648172e+04  1.505846833198735055e+02
1.112500000000000000e+02  2.644901078182652418e+04  1.546858033149818255e+02
1.115000000000000000e+02  2.702291722532929998e+04  1.605239989709737927e+02
1.117500000000000000e+02  2.773959781286939688e+04  1.614624020991572024e+02
1.120000000000000000e+02  2.802082504843585411e+04  1.592760922132653434e+02
1.122500000000000000e+02  2.859855261607911598e+04  1.631355613198122398e+02
1.125000000000000000e+02  2.929795402206144718e+04  1.567049228287329754e+02
1.127500000000000000e+02  2.962551722825382240e+04  1.696769471515550833e+02
1.130000000000000000e+02  3.029092542871132173e+04  1.686215430186645960e+02
1.132500000000000000e+02  3.055661357626129757e+04  1.673386933175310389e+02
1.135000000000000000e+02  3.108324562685989440e+04  1.693262527349646973e+02
1.137500000000000000e+02  3.137519667769542866e+04  1.642140380191004283e+02
1.140000000000000000e+02  3.154930806401637528e+04  1.689376716420067055e+02
1.142500000000000000e+02  3.146452434377423197e+04  1.735935777267813762e+02
1.145000000000000000e+02  3.171700172343353552e+04  1.715284741405122020e+02
1.147500000000000000e+02  3.170561624873000983e+04  1.708186489192680995e+02
1.150000000000000000e+02  3.150110597659855921e+04  1.693020707313566220e+02
1.152500000000000000e+02  3.158846099313782179e+04  1.646998058314372599e+02
1.155000000000000000e+02  3.181300025468766762e+04  1.734096970221001186e+02
1.157500000000000000e+02  3.182609426501230701e+04  1.733986574358109465e+02
1.160000000000000000e+02  3.184451606857688239e+04  1.715918976011778057e+02
1.162500000000000000e+02  3.189153451695935655e+04  1.715640351205767331e+02
1.165000000000000000e+02  3.200151611113055333e+04  1.692183713852142546e+02
1.167500000000000000e+02  3.228274862676927296e+04  1.684365718006764325e+02
1.170000000000000000e+02  3.248055302456973368e+04  1.674121870076729124e+02
1.172500000000000000e+02  3.290877006512859953e+04  1.836245073169619104e+02
1.175000000000000000e+02  3.358089962281697808e+04  1.872524697767921680e+02
1.177500000000000000e+02  3.342670892446254584e+04  1.734376731017675013e+02
1.180000000000000000e+02  3.363688176471119368e+04  1.683528459301908811e+02
1.182500000000000000e+02  3.375423663350752759e+04  1.773887291589384745e+02
1.185000000000000000e+02  3.379202379049895535e+04  1.786712732108206865e+02
1.187500000000000000e+02  3.391105572509426565e+04  1.777886345057670212e+02
1.190000000000000000e+02  3.352625711026624776e+04  1.749198668437317963e+02
1.192500000000000000e+02  3.333049929258159682e+04  1.733308963182464311e+02
1.195000000000000000e+02  3.253886976648482232e+04  1.655134658687855733e+02
1.197500000000000000e+02  3.232203032356121548e+04  1.746932615819370938e+02
1.200000000000000000e+02  3.182022045585529122e+04  1.724856887955648403e+02
1.202500000000000000e+02  3.131030347690712370e+04  1.696917028445288622e+02
1.205000000000000000e+02  3.068455354637996788e+04  1.672660942490836931e+02
1.207500000000000000e+02  3.027929883003405484e+04  1.612815671774438897e+02
1.210000000000000000e+02  2.950972256359761013e+04  1.644155158191337875e+02
1.212500000000000000e+02  2.927264569306010162e+04  1.646714974867810213e+02
1.215000000000000000e+02  2.897818446505738393e+04  1.646726997298749211e+02
1.217500000000000000e+02  2.894030817920094341e+04  1.618141127767584067e+02
1.220000000000000000e+02  2.885072054294311965e+04  1.599931645685049375e+02
1.222500000000000000e+02  2.855834440024630385e+04  1.559983101959860505e+02
1.225000000000000000e+02  2.886626928259064516e+04  1.651767939077345204e+02
1.227500000000000000e+02  2.847619199454821501e+04  1.634189519916699282e+02
1.230000000000000000e+02  2.829347458477521650e+04  1.613428043727725196e+02
1.232500000000000000e+02  2.810329165973040290e+04  1.590525884241717449e+02
1.235000000000000000e+02  2.824521040638232444e+04  1.569493254974387639e+02
1.237500000000000000e+02  2.812722036398825367e+04  1.588398845378493149e+02
1.240000000000000000e+02  2.775981531530989378e+04  1.613697311270600778e+02
1.242500000000000000e+02  2.778377302477784906e+04  1.592409029826205256e+02
1.245000000000000000e+02  2.779382732554673930e+04  1.605373181325400935e+02
1.247500000000000000e+02  2.748468948306353195e+04  1.570169200587619969e+02
1.250000000000000000e+02  2.736334881599516666e+04  1.528535594660046399e+02
1.252500000000000000e+02  2.756648222792104934e+04  1.617950801254960993e+02
1.255000000000000000e+02  2.709604422865140077e+04  1.583346124923833429e+02
1.257500000000000000e+02  2.686221990731259575e+04  1.564721665223578952e+02
1.260000000000000000e+02  2.711727716836683976e+04  1.573636481682154056e+02
1.262500000000000000e+02  2.667425022543598243e+04  1.541709645923629353e+02
1.265000000000000000e+02  2.639985378488261995e+04  1.529841601531728088e+02
1.267500000000000000e+02  2.654991333577822661e+04  1.577643294137516250e+02
1.270000000000000000e+02  2.651778709505901497e+04  1.564804851252904996e+02
1.272500000000000000e+02  2.661271381648120223e+04  1.557604662659791472e+02
1.275000000000000000e+02  2.637141771427171625e+04  1.544646474249817345e+02
1.277500000000000000e+02  2.618612066114785921e+04  1.489363093350732470e+02
1.280000000000000000e+02  2.601916015736542977e+04  1.569099982372376871e+02
1.282500000000000000e+02  2.618409591039649604e+04  1.563153000390432226e+02
1.285000000000000000e+02  2.592385125903477456e+04  1.552911192252322792e+02
1.287500000000000000e+02  2.598260583171257167e+04  1.544505599542512755e+02
1.290000000000000000e+02  2.630891342334207729e+04  1.530519497878431707e+02
1.292500000000000000e+02  2.625348023904233560e+04  1.523689280679016349e+02
1.295000000000000000e+02  2.611626067645542571e+04  1.570563765833867365e+02
1.297500000000000000e+02  2.621382665744892438e+04  1.568593840725709185e+02
1.300000000000000000e+02  2.609494774634910209e+04  1.556694071985033929e+02
1.302500000000000000e+02  2.603509111003742510e+04  1.528727765806307275e+02
1.305000000000000000e+02  2.575304218217550442e+04  1.488664895750948745e+02
1.307500000000000000e+02  2.639949638488190976e+04  1.579506088079973267e+02
1.310000000000000000e+02  2.632885612255472734e+04  1.595424565102442784e+02
1.312500000000000000e+02  2.618438428195806409e+04  1.603449496465697734e+02
1.315000000000000000e+02  2.627102983968589615e+04  1.582764482719784382e+02
1.317500000000000000e+02  2.615316619287300273e+04  1.687828024375371285e+02
1.320000000000000000e+02  2.599705381191911147e+04  3.777620149914503713e+02
