# DMC at SINQ, PSI: Sample name = Unknown, wavelength = 2.450 AA, T = 0.0 K
# Filelist='dmc:2022:580'
#   0.000   0.125 132.000     142., sample="Unknown"
0.000000000000000000e+00  1.250613981042744126e+04  1.088519751626722154e+03
1.250000000000000000e-01  1.340788159032075964e+04  7.859839385662170343e+02
2.500000000000000000e-01  1.341223908073734674e+04  5.080247810227622267e+02
3.750000000000000000e-01  1.245933936324258320e+04  4.902061507465942896e+02
5.000000000000000000e-01  1.352803372494913492e+04  3.866731072648199756e+02
6.250000000000000000e-01  1.409360088465566332e+04  3.916400383142475334e+02
7.500000000000000000e-01  1.323575569338668720e+04  3.165760297217778430e+02
8.750000000000000000e-01  1.362600507306173313e+04  3.073882545886977482e+02
1.000000000000000000e+00  1.336585936265570672e+04  3.063115797309233699e+02
1.125000000000000000e+00  1.329074607818820004e+04  2.572134828763092287e+02
1.250000000000000000e+00  1.328721729929096909e+04  2.693231904602930058e+02
1.375000000000000000e+00  1.332238832143513719e+04  2.356192505139048308e+02
1.500000000000000000e+00  1.368364373680606514e+04  2.533139544764538300e+02
1.625000000000000000e+00  1.370127917282222370e+04  2.266610226837725293e+02
1.750000000000000000e+00  1.347531155869247232e+04  2.351458080351195861e+02
1.875000000000000000e+00  1.296554667979661099e+04  2.062444949001442467e+02
2.000000000000000000e+00  1.369473911016486272e+04  2.205103323248995082e+02
2.125000000000000000e+00  1.344831473707161058e+04  1.972793045619969234e+02
2.250000000000000000e+00  1.332965381840581176e+04  1.960879410220571799e+02
2.375000000000000000e+00  1.334641811198253890e+04  1.900435752843659714e+02
2.500000000000000000e+00  1.349952800795584335e+04  1.845962545523647691e+02
2.625000000000000000e+00  1.357066197840384848e+04  1.901764935277588506e+02
2.750000000000000000e+00  1.332208284151220869e+04  1.749124396093675955e+02
2.875000000000000000e+00  1.325754055952513045e+04  1.780056886240515723e+02
3.000000000000000000e+00  1.334782844372309410e+04  1.700394803818233811e+02
3.125000000000000000e+00  1.320096260763676764e+04  1.663429015713608408e+02
3.250000000000000000e+00  1.306419710210166886e+04  1.661971708028487456e+02
3.375000000000000000e+00  1.302078479816325489e+04  1.578421894210057133e+02
3.500000000000000000e+00  1.328235267295152880e+04  1.552244555269696207e+02
3.625000000000000000e+00  1.361795617516765742e+04  1.551708628407155004e+02
3.750000000000000000e+00  1.331105005856839489e+04  1.533759130152793375e+02
3.875000000000000000e+00  1.316943019681561782e+04  1.473953966203073094e+02
4.000000000000000000e+00  1.342614884693918066e+04  1.502310198208411123e+02
4.125000000000000000e+00  1.348867521544806368e+04  1.459280159734771019e+02
4.250000000000000000e+00  1.326604338970539538e+04  1.441365333468720280e+02
4.375000000000000000e+00  1.305822565517866497e+04  1.419540078770152149e+02
4.500000000000000000e+00  1.309128297538072366e+04  1.351989787644405681e+02
4.625000000000000000e+00  1.330508471005742285e+04  1.402167513341734661e+02
4.750000000000000000e+00  1.327783474701497107e+04  1.319822557592372902e+02
4.875000000000000000e+00  1.346587977865967150e+04  1.381933829129234823e+02
5.000000000000000000e+00  1.328964199090736292e+04  1.268040192922731819e+02
5.125000000000000000e+00  1.342559144303737776e+04  1.332733141732772140e+02
5.250000000000000000e+00  1.336488398415067422e+04  1.282420011394745529e+02
5.375000000000000000e+00  1.342492581177616194e+04  1.317880360508856654e+02
5.500000000000000000e+00  1.325983444187285750e+04  1.250482686691149894e+02
5.625000000000000000e+00  1.318448639847090089e+04  1.208721464057132238e+02
5.750000000000000000e+00  1.326420939908996661e+04  1.244382734924379861e+02
5.875000000000000000e+00  1.340739454079424104e+04  1.199625766814820480e+02
6.000000000000000000e+00  1.321013075495946941e+04  1.232601552339011022e+02
6.125000000000000000e+00  1.315643170785057191e+04  1.162375908466119370e+02
6.250000000000000000e+00  1.319388433037161485e+04  1.185276008596376442e+02
6.375000000000000000e+00  1.341409653974660796e+04  1.149488849148461185e+02
6.500000000000000000e+00  1.332241418559000886e+04  1.164607207396365851e+02
6.625000000000000000e+00  1.307385877808848636e+04  1.108710837882504876e+02
6.750000000000000000e+00  1.274482519280275301e+04  1.110346610481937120e+02
6.875000000000000000e+00  1.305462596893915907e+04  1.080963964946659672e+02
7.000000000000000000e+00  1.269054912945629803e+04  1.091137972221016526e+02
7.125000000000000000e+00  1.286669419166933039e+04  1.071815220252789373e+02
7.250000000000000000e+00  1.251783304328482154e+04  1.084903696275708143e+02
7.375000000000000000e+00  1.217660969257424222e+04  1.088586684059831953e+02
7.500000000000000000e+00  1.220211312018516583e+04  1.091084715273316448e+02
7.625000000000000000e+00  1.197197813957176004e+04  1.067778082005328741e+02
7.750000000000000000e+00  1.157695268551575100e+04  1.058946370384412319e+02
7.875000000000000000e+00  1.135285990041825062e+04  1.030079543992060422e+02
8.000000000000000000e+00  1.114851416506709757e+04  1.031209460193774561e+02
8.125000000000000000e+00  1.139332974286558965e+04  1.031672748723986217e+02
8.250000000000000000e+00  1.122015410494581192e+04  1.013253624554056387e+02
8.375000000000000000e+00  1.107779969939428338e+04  1.040409801555350953e+02
8.500000000000000000e+00  1.081649858705834049e+04  9.907561754419698730e+01
8.625000000000000000e+00  1.088072142200510461e+04  1.012697020448823508e+02
8.750000000000000000e+00  1.097092744328967092e+04  1.004564283773888036e+02
8.875000000000000000e+00  1.088877083847814902e+04  1.011825981776637633e+02
9.000000000000000000e+00  1.128819632222054861e+04  1.011916209501250421e+02
9.125000000000000000e+00  1.125777379681994171e+04  9.657723090520593701e+01
9.250000000000000000e+00  1.174152137176142969e+04  1.052977136635791027e+02
9.375000000000000000e+00  1.131309908932182407e+04  9.556877737267232931e+01
9.500000000000000000e+00  1.113661544392779433e+04  1.035796183182912529e+02
9.625000000000000000e+00  1.088032908828159270e+04  9.494959806320197515e+01
9.750000000000000000e+00  1.070132742562680323e+04  9.834715498917888965e+01
9.875000000000000000e+00  1.072947628771411109e+04  9.515253040853623645e+01
1.000000000000000000e+01  1.046054602832831188e+04  9.443480185831477058e+01
1.012500000000000000e+01  1.034756659672930436e+04  9.533790075490506410e+01
1.025000000000000000e+01  1.014930687213336387e+04  9.299947635106835264e+01
1.037500000000000000e+01  1.024131148823397598e+04  9.532267637319067433e+01
1.050000000000000000e+01  1.012547631494997586e+04  8.987738548737610245e+01
1.062500000000000000e+01  1.008917434461215998e+04  9.404115730027648112e+01
1.075000000000000000e+01  9.966142306502153588e+03  9.068752531603604439e+01
1.087500000000000000e+01  9.972658871286608701e+03  9.347222823305475004e+01
1.100000000000000000e+01  9.921297370196218253e+03  9.214871441485828996e+01
1.112500000000000000e+01  9.971498517898522550e+03  9.253917353516504818e+01
1.125000000000000000e+01  9.819743080650099728e+03  9.350864127408156889e+01
1.137500000000000000e+01  9.749328069282544675e+03  9.241588220008347321e+01
1.150000000000000000e+01  9.951246971814183780e+03  9.337413090960403395e+01
1.162500000000000000e+01  9.831671625532851976e+03  9.300858373653581168e+01
1.175000000000000000e+01  9.980636644419060758e+03  9.391071071631799327e+01
1.187500000000000000e+01  9.649255870675400729e+03  8.996804075684480040e+01
1.200000000000000000e+01  9.824360431969131241e+03  9.371420840455189705e+01
1.212500000000000000e+01  9.759188807521148192e+03  8.959041497742514082e+01
1.225000000000000000e+01  9.810944813962198168e+03  9.576325995487417231e+01
1.237500000000000000e+01  9.878200842536643904e+03  9.058758094427051333e+01
1.250000000000000000e+01  9.707467314597628501e+03  9.551152430123158865e+01
1.262500000000000000e+01  9.732059225724839052e+03  9.219421651847690669e+01
1.275000000000000000e+01  9.906544435882477046e+03  9.440371618290357958e+01
1.287500000000000000e+01  9.904167653915392293e+03  9.202137300757300409e+01
1.300000000000000000e+01  1.002790554891454667e+04  9.670871370631029151e+01
1.312500000000000000e+01  9.909516519189217433e+03  9.329936036655577425e+01
1.325000000000000000e+01  1.000461694462185187e+04  9.324489722758670496e+01
1.337500000000000000e+01  9.767979377720273988e+03  9.317215277208791235e+01
1.350000000000000000e+01  9.991590851341781672e+03  9.178192086373128689e+01
1.362500000000000000e+01  9.815713987425264349e+03  9.608944138587317241e+01
1.375000000000000000e+01  1.005140584436310201e+04  9.232358637077797425e+01
1.387500000000000000e+01  1.011720920888216642e+04  9.720898421209945184e+01
1.400000000000000000e+01  9.662265469438450964e+03  9.247563248474470754e+01
1.412500000000000000e+01  9.873212548661051187e+03  9.507548443351149103e+01
1.425000000000000000e+01  9.689648793889755325e+03  9.218208976257629672e+01
1.437500000000000000e+01  9.871966852105873841e+03  9.671429478682350123e+01
1.450000000000000000e+01  9.845685376995561455e+03  8.602215254489281904e+01
1.462500000000000000e+01  9.683810126355130706e+03  9.646262776638509706e+01
1.475000000000000000e+01  9.836622653824817462e+03  9.407975983467771641e+01
1.487500000000000000e+01  9.923843026120399372e+03  9.479696266539751548e+01
1.500000000000000000e+01  9.899878162485159919e+03  9.557630291847858928e+01
1.512500000000000000e+01  9.920949486889068794e+03  9.442957684387862116e+01
1.525000000000000000e+01  1.005877508668686460e+04  9.666091916774504966e+01
1.537500000000000000e+01  1.049756719149765377e+04  9.768666327878703726e+01
1.550000000000000000e+01  1.141169491586598269e+04  1.046900430863771305e+02
1.562500000000000000e+01  1.165972975313621100e+04  1.004626631646743391e+02
1.575000000000000000e+01  1.184318846831861811e+04  1.063807124738988534e+02
1.587500000000000000e+01  1.172493417776475872e+04  1.020872613047149713e+02
1.600000000000000000e+01  1.135752823256210831e+04  1.007104217607210188e+02
1.612500000000000000e+01  1.131516299985244223e+04  9.967855900828659799e+01
1.625000000000000000e+01  1.095851627974152689e+04  1.005410778628562412e+02
1.637500000000000000e+01  1.059798608825720294e+04  9.723332222070366981e+01
1.650000000000000000e+01  1.030406394107484630e+04  9.791659110485673523e+01
1.662500000000000000e+01  1.009267068094357819e+04  9.477626186192466662e+01
1.675000000000000000e+01  9.962617159774299580e+03  9.588752707356847793e+01
1.687500000000000000e+01  9.934120598351137232e+03  9.425653976416342061e+01
1.700000000000000000e+01  9.836971546795184622e+03  9.561730517430467557e+01
1.712500000000000000e+01  9.872919369254999765e+03  9.572734426657784468e+01
1.725000000000000000e+01  9.828358170837789658e+03  9.508544322806794469e+01
1.737500000000000000e+01  9.822843151077460789e+03  9.337742132433172060e+01
1.750000000000000000e+01  9.912762296821347263e+03  9.284967027302243991e+01
1.762500000000000000e+01  9.659663513159659487e+03  9.489431701632398131e+01
1.775000000000000000e+01  9.720130534439214898e+03  9.210601385437333022e+01
1.787500000000000000e+01  9.827732559711048452e+03  9.607368838294647162e+01
1.800000000000000000e+01  9.855812012494376177e+03  9.367813102783985357e+01
1.812500000000000000e+01  9.994022984575474766e+03  9.707969122339692092e+01
1.825000000000000000e+01  9.958628962113718444e+03  9.484408535346399560e+01
1.837500000000000000e+01  9.869758829477836116e+03  9.689281179156206747e+01
1.850000000000000000e+01  1.000345308741046574e+04  9.607164749743026277e+01
1.862500000000000000e+01  9.881476324393937830e+03  9.622279126803535121e+01
1.875000000000000000e+01  1.000599591203040654e+04  9.193364024286213976e+01
1.887500000000000000e+01  9.819387100183597795e+03  9.601963757325370352e+01
1.900000000000000000e+01  9.820563817706224654e+03  9.282461792729172601e+01
1.912500000000000000e+01  9.831438808345947109e+03  9.626182870004848269e+01
1.925000000000000000e+01  9.931175732844210870e+03  9.561148648473334788e+01
1.937500000000000000e+01  9.842913973273254669e+03  9.597021369691658776e+01
1.950000000000000000e+01  9.737381487630495030e+03  9.392875383516482657e+01
1.962500000000000000e+01  9.931099459172755815e+03  9.688992798365298142e+01
1.975000000000000000e+01  9.647270057887282746e+03  9.551284389716650480e+01
1.987500000000000000e+01  9.709850217005188824e+03  9.549799787863206291e+01
2.000000000000000000e+01  9.733730931978365334e+03  9.604928032443811503e+01
2.012500000000000000e+01  9.983656049385346705e+03  9.355886621991471941e+01
2.025000000000000000e+01  9.699660528887003238e+03  9.525506939429945419e+01
2.037500000000000000e+01  9.662933033871209773e+03  9.223312439817894415e+01
2.050000000000000000e+01  9.931448041834688411e+03  9.698568737678345997e+01
2.062500000000000000e+01  1.003277021932006392e+04  9.730012131226288830e+01
2.075000000000000000e+01  1.071606089648391571e+04  9.995386143601129447e+01
2.087500000000000000e+01  1.128475073598287963e+04  1.020669882451522028e+02
2.100000000000000000e+01  1.268194596421228016e+04  1.101363077873215133e+02
2.112500000000000000e+01  1.353821450633580935e+04  1.125413496808488816e+02
2.125000000000000000e+01  1.372528189907369051e+04  1.146083906039922198e+02
2.137500000000000000e+01  1.381017601100521460e+04  1.146833148409705387e+02
2.150000000000000000e+01  1.282208621646671600e+04  1.083161292409554619e+02
2.162500000000000000e+01  1.184098929364480136e+04  1.018883702927085864e+02
2.175000000000000000e+01  1.101252939009463444e+04  1.031327414289378055e+02
2.187500000000000000e+01  1.081263613848898967e+04  9.888273588277498050e+01
2.200000000000000000e+01  1.021973870046219781e+04  9.988676197751900077e+01
2.212500000000000000e+01  1.005231982927556783e+04  9.681818066191586070e+01
2.225000000000000000e+01  9.855041163627072820e+03  9.736966094421832452e+01
2.237500000000000000e+01  9.807859025791629392e+03  9.598495529770174528e+01
2.250000000000000000e+01  9.779970824813992294e+03  9.814875700067121045e+01
2.262500000000000000e+01  9.776332606364045205e+03  9.574063018375643708e+01
2.275000000000000000e+01  9.812594131098334401e+03  9.821437406029856731e+01
2.287500000000000000e+01  9.701970962216904809e+03  9.366128448678684038e+01
2.300000000000000000e+01  9.809432077920704614e+03  9.640748586873807824e+01
2.312500000000000000e+01  9.571283599882168346e+03  9.343731459758657820e+01
2.325000000000000000e+01  9.662974462833381040e+03  9.463050223137668127e+01
2.337500000000000000e+01  9.830532907401393459e+03  9.634999502419555029e+01
2.350000000000000000e+01  9.674682123227861666e+03  9.598673610336389572e+01
2.362500000000000000e+01  9.523227282589617971e+03  9.579916519574639722e+01
2.375000000000000000e+01  9.519654981234656589e+03  9.471004263938441170e+01
2.387500000000000000e+01  9.490409260232505403e+03  9.797473173139786695e+01
2.400000000000000000e+01  9.562677777328704906e+03  9.404143612891708415e+01
2.412500000000000000e+01  9.583530008298284883e+03  9.705618115031330717e+01
2.425000000000000000e+01  9.556558781283771168e+03  9.544159428374345566e+01
2.437500000000000000e+01  9.745359084815372626e+03  9.430011443072237398e+01
2.450000000000000000e+01  9.603180246098314456e+03  9.432578478218965756e+01
2.462500000000000000e+01  9.722775889895361615e+03  9.694701902803514315e+01
2.475000000000000000e+01  9.591664473564736909e+03  9.666875337706736104e+01
2.487500000000000000e+01  9.591036153354414637e+03  9.530707103655863932e+01
2.500000000000000000e+01  9.609545762874986394e+03  9.613391889009723457e+01
2.512500000000000000e+01  9.665816056237601515e+03  9.695432358881012647e+01
2.525000000000000000e+01  9.608697155076926720e+03  9.661985019532886554e+01
2.537500000000000000e+01  9.644640279104922229e+03  9.566513880869769082e+01
2.550000000000000000e+01  9.601190455749378089e+03  9.703619059266890190e+01
2.562500000000000000e+01  9.621955030759600049e+03  9.793370157970684886e+01
2.575000000000000000e+01  9.778861704646633370e+03  9.502104892743295750e+01
2.587500000000000000e+01  9.879971732551635796e+03  9.463730748726555930e+01
2.600000000000000000e+01  1.018701620606930555e+04  1.001377441426691632e+02
2.612500000000000000e+01  1.022637790290714292e+04  9.850831627126873968e+01
2.625000000000000000e+01  1.031339502860052926e+04  1.011019988251409103e+02
2.637500000000000000e+01  1.031329385813078807e+04  1.001149123983186513e+02
2.650000000000000000e+01  1.011627715373721003e+04  9.810999083698864354e+01
2.662500000000000000e+01  1.000102515592952841e+04  1.002310028597154599e+02
2.675000000000000000e+01  9.889539679022920609e+03  9.867363032921367960e+01
2.687500000000000000e+01  9.898773639216677111e+03  9.878051466619659493e+01
2.700000000000000000e+01  9.903392016662786773e+03  9.792387951207692254e+01
2.712500000000000000e+01  1.025913300035129942e+04  9.790158304886088558e+01
2.725000000000000000e+01  1.052591648240911672e+04  9.989407963105102795e+01
2.737500000000000000e+01  1.076583831840116181e+04  9.979497572399166927e+01
2.750000000000000000e+01  1.072358878878627002e+04  1.052040304284079326e+02
2.762500000000000000e+01  1.057476880157938831e+04  1.005662430981133895e+02
2.775000000000000000e+01  1.047388943980767363e+04  1.009487552382119304e+02
2.787500000000000000e+01  1.015143605379915425e+04  1.006128831454999784e+02
2.800000000000000000e+01  1.002100000000000000e+04  1.001049449328053953e+02
2.812500000000000000e+01  9.677407962193090498e+03  9.842676023371031135e+01
2.825000000000000000e+01  9.483808986233143514e+03  9.745068135158489042e+01
2.837500000000000000e+01  9.599490289304741964e+03  9.686083502470734174e+01
2.850000000000000000e+01  9.818965685953440698e+03  9.679614354629777040e+01
2.862500000000000000e+01  9.511343730101920301e+03  9.559260122681038752e+01
2.875000000000000000e+01  9.545114298132444674e+03  9.599020172552552310e+01
2.887500000000000000e+01  9.481355979693216796e+03  9.695063743625270547e+01
2.900000000000000000e+01  9.675552401801709493e+03  9.852005676125884293e+01
2.912500000000000000e+01  9.547118207121160594e+03  8.798159721723337157e+01
2.925000000000000000e+01  9.344577597575886102e+03  9.901895287819735358e+01
2.937500000000000000e+01  9.555601908785181877e+03  1.010623259084658798e+02
2.950000000000000000e+01  9.467075481353453142e+03  9.779640059553466358e+01
2.962500000000000000e+01  9.580389742794430276e+03  9.949390247132400589e+01
2.975000000000000000e+01  9.325723526629424668e+03  9.635163642133166206e+01
2.987500000000000000e+01  9.569364913863613765e+03  9.657161316643505700e+01
3.000000000000000000e+01  9.713334388581410167e+03  9.848699394432648546e+01
3.012500000000000000e+01  9.692457718558498527e+03  9.671685899626690741e+01
3.025000000000000000e+01  9.860882816871941031e+03  9.900065615524712825e+01
3.037500000000000000e+01  1.038122806046672849e+04  1.016059833117978144e+02
3.050000000000000000e+01  1.062488971315543495e+04  1.037971033025967529e+02
3.062500000000000000e+01  1.076658919494292786e+04  1.038228930797827303e+02
3.075000000000000000e+01  1.079308406124603789e+04  1.043748287982612624e+02
3.087500000000000000e+01  1.074817343231386440e+04  1.038579940370789814e+02
3.100000000000000000e+01  1.040077548297343492e+04  1.035479870049074691e+02
3.112500000000000000e+01  1.008864072002046851e+04  1.003162251307652042e+02
3.125000000000000000e+01  9.850516203943838264e+03  9.786139430580240628e+01
3.137500000000000000e+01  9.736336730960767454e+03  9.586519707153534853e+01
3.150000000000000000e+01  9.680223783919291236e+03  9.810085946926288614e+01
3.162500000000000000e+01  9.493985730114096441e+03  9.776191546684738398e+01
3.175000000000000000e+01  9.512300298847250815e+03  9.593224708544805424e+01
3.187500000000000000e+01  9.520691373072502756e+03  9.857140356917349777e+01
3.200000000000000000e+01  9.283246507120087699e+03  9.699033096119732988e+01
3.212500000000000000e+01  9.608158902345756360e+03  9.801692648881981995e+01
3.225000000000000000e+01  9.477224962894251803e+03  9.933194018054521734e+01
3.237500000000000000e+01  9.367757275225525518e+03  9.737498814541599756e+01
3.250000000000000000e+01  9.633205592574779075e+03  9.873591739293306091e+01
3.262500000000000000e+01  9.375371936438448756e+03  9.532524102354746276e+01
3.275000000000000000e+01  9.570727169397567195e+03  9.750324655009968922e+01
3.287500000000000000e+01  9.502372420176578089e+03  9.683200041534530556e+01
3.300000000000000000e+01  9.387579641563843325e+03  9.719845589921737883e+01
3.312500000000000000e+01  9.392754262466709406e+03  9.734077439434818757e+01
3.325000000000000000e+01  9.519764897213068252e+03  9.805856729781315551e+01
3.337500000000000000e+01  9.438722863435885301e+03  9.773322869900357546e+01
3.350000000000000000e+01  9.514704925398200430e+03  9.952816237829766521e+01
3.362500000000000000e+01  9.581668585437197180e+03  9.878008850966185150e+01
3.375000000000000000e+01  9.468807837070889946e+03  9.921647471787650829e+01
3.387500000000000000e+01  9.537189005962734882e+03  9.872104788089663430e+01
3.400000000000000000e+01  9.539748202386552293e+03  9.783971182794387289e+01
3.412500000000000000e+01  9.577357567609946273e+03  9.524641689090658758e+01
3.425000000000000000e+01  9.716157396159083873e+03  1.002038522866042740e+02
3.437500000000000000e+01  9.992406742723005664e+03  1.004731464150622315e+02
3.450000000000000000e+01  1.063325479819635984e+04  1.032598194161818981e+02
3.462500000000000000e+01  1.108109010026406395e+04  1.072402616128668456e+02
3.475000000000000000e+01  1.176479192876827983e+04  1.097836482311873283e+02
3.487500000000000000e+01  1.221105709687174931e+04  1.114619022774685249e+02
3.500000000000000000e+01  1.267342824819700945e+04  1.161380948169127407e+02
3.512500000000000000e+01  1.245525961393597026e+04  1.142251815426344876e+02
3.525000000000000000e+01  1.199680753710896715e+04  1.115656316884409733e+02
3.537500000000000000e+01  1.124532853105015420e+04  1.070013575521106333e+02
3.550000000000000000e+01  1.061661328046863127e+04  1.015351287917814318e+02
3.562500000000000000e+01  1.008253700248217319e+04  9.867782653104504220e+01
3.575000000000000000e+01  9.740981361672531420e+03  1.013092860105034561e+02
3.587500000000000000e+01  9.573023519097232565e+03  9.862285620803170616e+01
3.600000000000000000e+01  9.557728841335283505e+03  9.950031252697381490e+01
3.612500000000000000e+01  9.596277560775277379e+03  9.929545330717522233e+01
3.625000000000000000e+01  9.560499796668011186e+03  1.009617830093408912e+02
3.637500000000000000e+01  9.407715453292099482e+03  9.894639093913197314e+01
3.650000000000000000e+01  9.415596264625737604e+03  1.000245162467906397e+02
3.662500000000000000e+01  9.483256708285221976e+03  1.006524607478359030e+02
3.675000000000000000e+01  9.347776543219066298e+03  9.940506408072921829e+01
3.687500000000000000e+01  9.428597496903004867e+03  9.477533127917335776e+01
3.700000000000000000e+01  9.303999103423442648e+03  9.692717516959925206e+01
3.712500000000000000e+01  9.369772404227180232e+03  9.786230171957363666e+01
3.725000000000000000e+01  9.393074697515168737e+03  9.869419699864697293e+01
3.737500000000000000e+01  9.441792686135115218e+03  9.963045465360130493e+01
3.750000000000000000e+01  9.530542427332236912e+03  9.915820127766200187e+01
3.762500000000000000e+01  9.368617751651918297e+03  9.998348301895777013e+01
3.775000000000000000e+01  9.304744590957947366e+03  9.872998524674720500e+01
3.787500000000000000e+01  9.535801320134045454e+03  1.023994347459290140e+02
3.800000000000000000e+01  9.333398906394144433e+03  9.851410267237412199e+01
3.812500000000000000e+01  9.622857525464067294e+03  1.013831456929082435e+02
3.825000000000000000e+01  9.465953244026110042e+03  9.400379300023385554e+01
3.837500000000000000e+01  9.752965787185899899e+03  1.002481557207481728e+02
3.850000000000000000e+01  9.933736463296283546e+03  1.018162203035712849e+02
3.862500000000000000e+01  1.045164047709488113e+04  1.037821489334078962e+02
3.875000000000000000e+01  1.060964484353092303e+04  1.066309427421848426e+02
3.887500000000000000e+01  1.086483822781880735e+04  1.064157874173432674e+02
3.900000000000000000e+01  1.092024220146969856e+04  1.075481484841219100e+02
3.912500000000000000e+01  1.083594403379883079e+04  1.073760831968480431e+02
3.925000000000000000e+01  1.063206241181290352e+04  1.056362059558874620e+02
3.937500000000000000e+01  1.019703493795301074e+04  1.059149989494571997e+02
3.950000000000000000e+01  9.835186499657189415e+03  1.028918052835605010e+02
3.962500000000000000e+01  9.567546689315218828e+03  9.617203484470012143e+01
3.975000000000000000e+01  9.411680914769967785e+03  9.740623863888831124e+01
3.987500000000000000e+01  9.323964422666042083e+03  9.811438514159490865e+01
4.000000000000000000e+01  9.260873556401353198e+03  9.824789144906503680e+01
4.012500000000000000e+01  9.320246230664235554e+03  9.882773079105415093e+01
4.025000000000000000e+01  9.426430933918634764e+03  1.003038861780565867e+02
4.037500000000000000e+01  9.479481500152736771e+03  1.002796947493445003e+02
4.050000000000000000e+01  9.489849998041756407e+03  9.955179239428728977e+01
4.062500000000000000e+01  9.343547691587644294e+03  1.013748244301745274e+02
4.075000000000000000e+01  9.270674366897386790e+03  9.861303565326561227e+01
4.087500000000000000e+01  9.361490207690414536e+03  1.009534145964101128e+02
4.100000000000000000e+01  9.214948928258509113e+03  9.572971911921231936e+01
4.112500000000000000e+01  9.479145975637073207e+03  9.897766139947701447e+01
4.125000000000000000e+01  9.393427698301857163e+03  9.810401792834507262e+01
4.137500000000000000e+01  9.544220818028188660e+03  9.979324368960006097e+01
4.150000000000000000e+01  9.301094199435063274e+03  9.938178198066439961e+01
4.162500000000000000e+01  9.514435541067276063e+03  1.006156866588185750e+02
4.175000000000000000e+01  9.574842570092141614e+03  1.015273567312559209e+02
4.187500000000000000e+01  9.635501302690263401e+03  1.012023064134544796e+02
4.200000000000000000e+01  9.956346854405224803e+03  1.037964505666041504e+02
4.212500000000000000e+01  1.020706228904796080e+04  1.043494541828728757e+02
4.225000000000000000e+01  1.070594012012121675e+04  1.070112569655944554e+02
4.237500000000000000e+01  1.158945754098942598e+04  1.070439804938718567e+02
4.250000000000000000e+01  1.208284498827908828e+04  1.108005085357969222e+02
4.262500000000000000e+01  1.276915574022397959e+04  1.142977002881955428e+02
4.275000000000000000e+01  1.303861199744192891e+04  1.161249353940718123e+02
4.287500000000000000e+01  1.287126481050407347e+04  1.147574541230247434e+02
4.300000000000000000e+01  1.253623819678070686e+04  1.145160436046369341e+02
4.312500000000000000e+01  1.215392370418290011e+04  1.124255403864257801e+02
4.325000000000000000e+01  1.150024676974870454e+04  1.094715616636430155e+02
4.337500000000000000e+01  1.063875601600305527e+04  1.057235865346857224e+02
4.350000000000000000e+01  1.034406649613201262e+04  1.028560469334940422e+02
4.362500000000000000e+01  9.955703604317341160e+03  1.029649418744861435e+02
4.375000000000000000e+01  9.770348992565384833e+03  9.413296685759318905e+01
4.387500000000000000e+01  9.795020187653102766e+03  9.257490743213330120e+01
4.400000000000000000e+01  9.757450892857530562e+03  1.046589842431278896e+02
4.412500000000000000e+01  1.000208248560695938e+04  1.001611487599213177e+02
4.425000000000000000e+01  9.764184670027942047e+03  1.016275858636442990e+02
4.437500000000000000e+01  1.002699499314403147e+04  1.011332675329221473e+02
4.450000000000000000e+01  9.988063191655903211e+03  9.993561162653399776e+01
4.462500000000000000e+01  1.001263090660616945e+04  1.006307269137232936e+02
4.475000000000000000e+01  1.019424150049638774e+04  1.018813045498738461e+02
4.487500000000000000e+01  1.028341302079402158e+04  1.019910883977379115e+02
4.500000000000000000e+01  1.030863293470119243e+04  1.021357829973895548e+02
4.512500000000000000e+01  1.032374354353047056e+04  9.893800556382457501e+01
4.525000000000000000e+01  1.045864574884008834e+04  1.009237854809790491e+02
4.537500000000000000e+01  1.035746989590969679e+04  1.016709417933796260e+02
4.550000000000000000e+01  1.028592470673277967e+04  1.012323556801542423e+02
4.562500000000000000e+01  1.029870077056569789e+04  1.036210357435084433e+02
4.575000000000000000e+01  1.072263184941412510e+04  1.044979648300864881e+02
4.587500000000000000e+01  1.116574978771534188e+04  1.075870200597067878e+02
4.600000000000000000e+01  1.188998041516843114e+04  1.116590070842782580e+02
4.612500000000000000e+01  1.245879549953585047e+04  1.158268852864680696e+02
4.625000000000000000e+01  1.332527870349874320e+04  1.170687096630840358e+02
4.637500000000000000e+01  1.387635046905973832e+04  1.234978982753538759e+02
4.650000000000000000e+01  1.381390307851279431e+04  1.202163801519670869e+02
4.662500000000000000e+01  1.398306813527661689e+04  1.178004575463936447e+02
4.675000000000000000e+01  1.355674710096653507e+04  1.204818118635954391e+02
4.687500000000000000e+01  1.329745805173359804e+04  1.177273396290304106e+02
4.700000000000000000e+01  1.239263300154015815e+04  1.164410567887817791e+02
4.712500000000000000e+01  1.131480668814439559e+04  1.104317245315567675e+02
4.725000000000000000e+01  1.072244465689625395e+04  1.086015573466838191e+02
4.737500000000000000e+01  9.977113070205228723e+03  1.037034539170610401e+02
4.750000000000000000e+01  9.884908176613882461e+03  1.063016265692778575e+02
4.762500000000000000e+01  9.781670921810555228e+03  1.040367832307369014e+02
4.775000000000000000e+01  9.636416001842964761e+03  1.052924438398719218e+02
4.787500000000000000e+01  9.421871881849730926e+03  1.008047232732783129e+02
4.800000000000000000e+01  9.272860517193366832e+03  9.685539144850312709e+01
4.812500000000000000e+01  9.437050506984949607e+03  9.984759587172858630e+01
4.825000000000000000e+01  9.435769757522339205e+03  1.009996726797322708e+02
4.837500000000000000e+01  9.585488097051053046e+03  1.029686194260725074e+02
4.850000000000000000e+01  9.430011892790436832e+03  1.008918133505590333e+02
4.862500000000000000e+01  9.357124598450882331e+03  1.017860735793137934e+02
4.875000000000000000e+01  9.415283277147236731e+03  1.029438528648955611e+02
4.887500000000000000e+01  9.589446536565881615e+03  1.047042550699989505e+02
4.900000000000000000e+01  9.691175396316279148e+03  1.046609600437790277e+02
4.912500000000000000e+01  9.733462861769727169e+03  1.046972126574766264e+02
4.925000000000000000e+01  1.044831051444183868e+04  1.090616450830410287e+02
4.937500000000000000e+01  1.168453927927401310e+04  1.081623625507988891e+02
4.950000000000000000e+01  1.332031233732548390e+04  1.192359223951217615e+02
4.962500000000000000e+01  1.570290484355434273e+04  1.312408861444675097e+02
4.975000000000000000e+01  1.731882272006964558e+04  1.360779222146673249e+02
4.987500000000000000e+01  1.910374437178880544e+04  1.476040006903571964e+02
5.000000000000000000e+01  2.022742762024791955e+04  1.508124325150985499e+02
5.012500000000000000e+01  2.045153691680647898e+04  1.515178093067083296e+02
5.025000000000000000e+01  2.035355560639127725e+04  1.525392108328944403e+02
5.037500000000000000e+01  1.936526546658805819e+04  1.481809025128201256e+02
5.050000000000000000e+01  1.800223309281074035e+04  1.430642295383163685e+02
5.062500000000000000e+01  1.639285483653792835e+04  1.363375553895595829e+02
5.075000000000000000e+01  1.374318365156255823e+04  1.185109555501461500e+02
5.087500000000000000e+01  1.171608549695857619e+04  1.125558506176566738e+02
5.100000000000000000e+01  1.059818837723032993e+04  1.057074008950427526e+02
5.112500000000000000e+01  9.994445087441901705e+03  1.064685751311401702e+02
5.125000000000000000e+01  9.676434915049110714e+03  1.037422716496624417e+02
5.137500000000000000e+01  9.621672094218287384e+03  1.062600727459082606e+02
5.150000000000000000e+01  9.673441236291286259e+03  1.039854444357132053e+02
5.162500000000000000e+01  9.384613215574549031e+03  1.040233542952839940e+02
5.175000000000000000e+01  9.679656611750340744e+03  1.040883466956361758e+02
5.187500000000000000e+01  9.611901641812852176e+03  1.049807291734030059e+02
5.200000000000000000e+01  9.354104923440692801e+03  1.031228947391876432e+02
5.212500000000000000e+01  9.179278563151563503e+03  9.721281510126030412e+01
5.225000000000000000e+01  9.464890074006223585e+03  1.013752764184900741e+02
5.237500000000000000e+01  9.225330379381273815e+03  1.007526072062966591e+02
5.250000000000000000e+01  9.239459906507885535e+03  1.020701153169049888e+02
5.262500000000000000e+01  9.202535522381645933e+03  1.009501551240925181e+02
5.275000000000000000e+01  9.328161944254328773e+03  1.037231042314767251e+02
5.287500000000000000e+01  9.227416255302625359e+03  1.002388054596107168e+02
5.300000000000000000e+01  9.370191200530704009e+03  1.043842130225278453e+02
5.312500000000000000e+01  9.382999644337134669e+03  1.022977909220550430e+02
5.325000000000000000e+01  9.460632637913387953e+03  1.054440889257683551e+02
5.337500000000000000e+01  9.621249687215969971e+03  1.039967990599513712e+02
5.350000000000000000e+01  9.609587607852194196e+03  1.006860722532585015e+02
5.362500000000000000e+01  9.677437086008454571e+03  1.009986021150607911e+02
5.375000000000000000e+01  9.849976619078581280e+03  1.042340158277868341e+02
5.387500000000000000e+01  9.791129013284151370e+03  1.047134657593372111e+02
5.400000000000000000e+01  9.828450566509680357e+03  1.027763529988199593e+02
5.412500000000000000e+01  9.546443752789535210e+03  1.039809045532232972e+02
5.425000000000000000e+01  9.609209899526184017e+03  1.031223448138294714e+02
5.437500000000000000e+01  9.638267812756517742e+03  1.052310472341356444e+02
5.450000000000000000e+01  9.258632447615951605e+03  1.005957198638307801e+02
5.462500000000000000e+01  9.559975017204991673e+03  1.058047728927054152e+02
5.475000000000000000e+01  9.542390640309815353e+03  1.029761047854321134e+02
5.487500000000000000e+01  9.438994471272511873e+03  9.891494383261903067e+01
5.500000000000000000e+01  9.388632413310680931e+03  1.001116026431064086e+02
5.512500000000000000e+01  9.677901845106283872e+03  1.028633136168637208e+02
5.525000000000000000e+01  9.351945617685836623e+03  1.010209763885516452e+02
5.537500000000000000e+01  9.361712610505781413e+03  1.007101637910076448e+02
5.550000000000000000e+01  9.244820768326500911e+03  1.017512977539206958e+02
5.562500000000000000e+01  9.059252028365628576e+03  9.872708087467215421e+01
5.575000000000000000e+01  9.120411724520667121e+03  1.018801967888055202e+02
5.587500000000000000e+01  9.414865943441995114e+03  1.014523543633840887e+02
5.600000000000000000e+01  9.500331932683289779e+03  1.040230824490016914e+02
5.612500000000000000e+01  1.000483448387073804e+04  1.036561724537822755e+02
5.625000000000000000e+01  1.083332941883284730e+04  1.052126718121082973e+02
5.637500000000000000e+01  1.198340247127651128e+04  1.093337910469414140e+02
5.650000000000000000e+01  1.330936249313831104e+04  1.186304390017110393e+02
5.662500000000000000e+01  1.500093292241327799e+04  1.268489958739062189e+02
5.675000000000000000e+01  1.598468274012010261e+04  1.315979522323204947e+02
5.687500000000000000e+01  1.705749596556822871e+04  1.365211429028771590e+02
5.700000000000000000e+01  1.774725714460368181e+04  1.387224341569089461e+02
5.712500000000000000e+01  1.803371621070562833e+04  1.449766193190485239e+02
5.725000000000000000e+01  1.786422803034145181e+04  1.417171158109865985e+02
5.737500000000000000e+01  1.766874112284552393e+04  1.425315677140468438e+02
5.750000000000000000e+01  1.667797767132115405e+04  1.369811111976826510e+02
5.762500000000000000e+01  1.483207430709386608e+04  1.285572432220416488e+02
5.775000000000000000e+01  1.310717078205225516e+04  1.166476692908214829e+02
5.787500000000000000e+01  1.163830785301780088e+04  1.140407864651569980e+02
5.800000000000000000e+01  1.067796543609735272e+04  1.082399195034589070e+02
5.812500000000000000e+01  9.820342320745612597e+03  1.064915138991322721e+02
5.825000000000000000e+01  9.368844031921840724e+03  1.040725732613619243e+02
5.837500000000000000e+01  9.340496159140784584e+03  1.051420421344005547e+02
5.850000000000000000e+01  9.254331568806492214e+03  1.007394469098047978e+02
5.862500000000000000e+01  9.425707017156462825e+03  1.326775013057555839e+02
5.875000000000000000e+01  9.107741663671749848e+03  9.936769396537997068e+01
5.887500000000000000e+01  9.255942019108653767e+03  9.848976365113199449e+01
5.900000000000000000e+01  9.072619017961955251e+03  9.857467032263186013e+01
5.912500000000000000e+01  9.307635908319954979e+03  9.814381706614527445e+01
5.925000000000000000e+01  9.153733119302345585e+03  1.004268873550761612e+02
5.937500000000000000e+01  9.369181112969325113e+03  1.030763517634449187e+02
5.950000000000000000e+01  9.498551225182072812e+03  1.034224509680811792e+02
5.962500000000000000e+01  9.910255596067128863e+03  1.080461785546855538e+02
5.975000000000000000e+01  1.029554427026095618e+04  1.096201518516283784e+02
5.987500000000000000e+01  1.102028002385920445e+04  1.146267960374998722e+02
6.000000000000000000e+01  1.190389567841351345e+04  1.169524258632724809e+02
6.012500000000000000e+01  1.270525866183479047e+04  1.246632501293502031e+02
6.025000000000000000e+01  1.363010925807023523e+04  1.254221924795554486e+02
6.037500000000000000e+01  1.422578593484570956e+04  1.317033040730846096e+02
6.050000000000000000e+01  1.487614452820948645e+04  1.198325990527694955e+02
6.062500000000000000e+01  1.537376772452061232e+04  1.311270060844996124e+02
6.075000000000000000e+01  1.558730733828974917e+04  1.343084762856039163e+02
6.087500000000000000e+01  1.506493041667868238e+04  1.306196928845360787e+02
6.100000000000000000e+01  1.506972888530979617e+04  1.328567626236760759e+02
6.112500000000000000e+01  1.423182142368677705e+04  1.279862826997377852e+02
6.125000000000000000e+01  1.349577236010692650e+04  1.290413163568187542e+02
6.137500000000000000e+01  1.241604644343531072e+04  1.194624017850239568e+02
6.150000000000000000e+01  1.165442846380496121e+04  1.184978270553750548e+02
6.162500000000000000e+01  1.047885071824977422e+04  1.104322473285788249e+02
6.175000000000000000e+01  9.839804884790941287e+03  1.084313051015143259e+02
6.187500000000000000e+01  9.471923560389423074e+03  9.762276127848842577e+01
6.200000000000000000e+01  9.228805057475137801e+03  1.018344122028056944e+02
6.212500000000000000e+01  9.178352896605338174e+03  1.029198774837392563e+02
6.225000000000000000e+01  9.148966187314948911e+03  1.023909938340070056e+02
6.237500000000000000e+01  9.482371735328097202e+03  1.069289308473403111e+02
6.250000000000000000e+01  9.194355495038736990e+03  1.026549658108566661e+02
6.262500000000000000e+01  9.603875818583295768e+03  1.064276121946352447e+02
6.275000000000000000e+01  9.871452221845165695e+03  1.067948790005013393e+02
6.287500000000000000e+01  1.050092336401713328e+04  1.132146237389748791e+02
6.300000000000000000e+01  1.146976398252177205e+04  1.158739371980395987e+02
6.312500000000000000e+01  1.221252460647787848e+04  1.208805408235017325e+02
6.325000000000000000e+01  1.344106449935220553e+04  1.174844616855629056e+02
6.337500000000000000e+01  1.464811342196406622e+04  1.282310145973320630e+02
6.350000000000000000e+01  1.546112769395154282e+04  1.326610152721237625e+02
6.362500000000000000e+01  1.601753972305391289e+04  1.366726067655405927e+02
6.375000000000000000e+01  1.662984486794707482e+04  1.397022088270741165e+02
6.387500000000000000e+01  1.650160188342813854e+04  1.383712193380634119e+02
6.400000000000000000e+01  1.624622115990434213e+04  1.395824431361930920e+02
6.412500000000000000e+01  1.606392108284129608e+04  1.370633747823903263e+02
6.425000000000000000e+01  1.581264238834732350e+04  1.388409957032495186e+02
6.437500000000000000e+01  1.476682804085140015e+04  1.292801616226094552e+02
6.450000000000000000e+01  1.352514502585600530e+04  1.307769587375877052e+02
6.462500000000000000e+01  1.219094398597594773e+04  1.131364437401991268e+02
6.475000000000000000e+01  1.094480832307021410e+04  1.100550598613560140e+02
6.487500000000000000e+01  1.009988726211085668e+04  1.071187868688973168e+02
6.500000000000000000e+01  9.704538575088177822e+03  1.059735447928700438e+02
6.512500000000000000e+01  9.272063731339881997e+03  1.041936462963549701e+02
6.525000000000000000e+01  9.309794191619523190e+03  1.032892497552696653e+02
6.537500000000000000e+01  9.069108832039670233e+03  1.034663662771125132e+02
6.550000000000000000e+01  9.236652545675009605e+03  1.052136113616868727e+02
6.562500000000000000e+01  8.887678639786476197e+03  1.028870512917996507e+02
6.575000000000000000e+01  9.094764958433248466e+03  1.035839473484531226e+02
6.587500000000000000e+01  9.250526511336696785e+03  1.091930454924347771e+02
6.600000000000000000e+01  9.573575999524391591e+03  1.006797058253637402e+02
6.612500000000000000e+01  1.016135499481460101e+04  1.053173951194856244e+02
6.625000000000000000e+01  1.080939634886538624e+04  1.110951891904015554e+02
6.637500000000000000e+01  1.122292676209548881e+04  1.148129254941684394e+02
6.650000000000000000e+01  1.194196844584390237e+04  1.180004146931421189e+02
6.662500000000000000e+01  1.252978503888194973e+04  1.209605517946067010e+02
6.675000000000000000e+01  1.336785227154769746e+04  1.260389217358282963e+02
6.687500000000000000e+01  1.376385558107994439e+04  1.275141869037074258e+02
6.700000000000000000e+01  1.453144804756098347e+04  1.336030957038561837e+02
6.712500000000000000e+01  1.442856164444453862e+04  1.305979489777794811e+02
6.725000000000000000e+01  1.426644034491296225e+04  1.347811242577120652e+02
6.737500000000000000e+01  1.458343941253717094e+04  1.227581375773855967e+02
6.750000000000000000e+01  1.415984191375905357e+04  1.238712326169505502e+02
6.762500000000000000e+01  1.383165313551104555e+04  1.252823960680405690e+02
6.775000000000000000e+01  1.338107202698465699e+04  1.237874310178269326e+02
6.787500000000000000e+01  1.241267042716285687e+04  1.209453518683191646e+02
6.800000000000000000e+01  1.143350739246290141e+04  1.154016988079692965e+02
6.812500000000000000e+01  1.076867126058025315e+04  1.125406002746753558e+02
6.825000000000000000e+01  9.967659466119041099e+03  1.094224607360613817e+02
6.837500000000000000e+01  9.791187537550915295e+03  1.119962391400331683e+02
6.850000000000000000e+01  9.563413236511180003e+03  1.053344112524254399e+02
6.862500000000000000e+01  9.387008952012625741e+03  1.070374677941723291e+02
6.875000000000000000e+01  9.218245024300065779e+03  1.003109678437473065e+02
6.887500000000000000e+01  9.186705870449372014e+03  9.955016529285276761e+01
6.900000000000000000e+01  9.349429263442472802e+03  1.026790028809565314e+02
6.912500000000000000e+01  9.186404338169948460e+03  1.022670431059409424e+02
6.925000000000000000e+01  9.162371066707857608e+03  1.024256202987429560e+02
6.937500000000000000e+01  9.219054428478098998e+03  1.030078021815210576e+02
6.950000000000000000e+01  9.546133154717495927e+03  1.073412627771848804e+02
6.962500000000000000e+01  9.271621352981996097e+03  1.059077981348709585e+02
6.975000000000000000e+01  9.366801003778789891e+03  1.082162323424297057e+02
6.987500000000000000e+01  9.597891282986425722e+03  1.049278905071945189e+02
7.000000000000000000e+01  9.801743784908476300e+03  1.115998288876425448e+02
7.012500000000000000e+01  9.799949810181371504e+03  1.024391215904334445e+02
7.025000000000000000e+01  9.931966210447679259e+03  1.025550298685834036e+02
7.037500000000000000e+01  9.883364933723567447e+03  1.044645777098980375e+02
7.050000000000000000e+01  9.960479936623176400e+03  1.066283430843771782e+02
7.062500000000000000e+01  1.001320585569695140e+04  1.060742385375033479e+02
7.075000000000000000e+01  9.870295010248961262e+03  1.072858153287930634e+02
7.087500000000000000e+01  9.933692428237218337e+03  1.096658518251175423e+02
7.100000000000000000e+01  1.004513229718451475e+04  1.088587479059336687e+02
7.112500000000000000e+01  9.956731186662304026e+03  1.092104042963640183e+02
7.125000000000000000e+01  9.788041628608048995e+03  1.065302960242839703e+02
7.137500000000000000e+01  9.644485058205060341e+03  1.097027187916428232e+02
7.150000000000000000e+01  9.486093034309873474e+03  1.022376893990116429e+02
7.162500000000000000e+01  9.509258490530735799e+03  9.696764426598296893e+01
7.175000000000000000e+01  9.361832446290734879e+03  1.003693791471947350e+02
7.187500000000000000e+01  9.420216770028717292e+03  1.025756076052708465e+02
7.200000000000000000e+01  9.260018917753623100e+03  1.030929409879802847e+02
7.212500000000000000e+01  9.361435376100875146e+03  1.034934122185399588e+02
7.225000000000000000e+01  9.129170186684172222e+03  1.038344714011533796e+02
7.237500000000000000e+01  9.576675847535827415e+03  1.054996895780506634e+02
7.250000000000000000e+01  9.607452186689486552e+03  1.065130355188421305e+02
7.262500000000000000e+01  9.549969174498799475e+03  1.046607316645910686e+02
7.275000000000000000e+01  9.664226194585924532e+03  1.088689357441602112e+02
7.287500000000000000e+01  9.813047000602511616e+03  1.053341111260029805e+02
7.300000000000000000e+01  9.837434020617942224e+03  9.654756394961609089e+01
7.312500000000000000e+01  1.021817647608790321e+04  9.211173096489189049e+01
7.325000000000000000e+01  1.029284122976430262e+04  1.009296120786164153e+02
7.337500000000000000e+01  1.053237645497404264e+04  1.432081989267355198e+02
7.350000000000000000e+01  1.052287220814651482e+04  1.092876294298218625e+02
7.362500000000000000e+01  1.071914328724758161e+04  1.119252449012278703e+02
7.375000000000000000e+01  1.064617259069550346e+04  1.106039890756521089e+02
7.387500000000000000e+01  1.055351747270306078e+04  1.102198793243847774e+02
7.400000000000000000e+01  1.084273915479488460e+04  1.108945144949719008e+02
7.412500000000000000e+01  1.071805128146341667e+04  1.139895752401979365e+02
7.425000000000000000e+01  1.048134505231895855e+04  1.076326772874014353e+02
7.437500000000000000e+01  1.035191117492141711e+04  9.849586927439854378e+01
7.450000000000000000e+01  1.006448133282350136e+04  1.020788872297260212e+02
7.462500000000000000e+01  1.009643782636100150e+04  1.056769716958151832e+02
7.475000000000000000e+01  9.694765116230442800e+03  1.045231116182420550e+02
7.487500000000000000e+01  9.746473902940737389e+03  1.032196766769145455e+02
7.500000000000000000e+01  9.554128711581990501e+03  1.052576903878482284e+02
7.512500000000000000e+01  9.546824167643548208e+03  1.011847653488384537e+02
7.525000000000000000e+01  9.499826337982813129e+03  1.046467413476372030e+02
7.537500000000000000e+01  9.526688206312128386e+03  1.019670147754701190e+02
7.550000000000000000e+01  9.481659572573807964e+03  1.061143441734022730e+02
7.562500000000000000e+01  9.670479218298174601e+03  1.019131564648681803e+02
7.575000000000000000e+01  1.003499584266506099e+04  9.854821439552490858e+01
7.587500000000000000e+01  1.024344952600351098e+04  1.026451339109267451e+02
7.600000000000000000e+01  1.077302039911016618e+04  1.084538361321023103e+02
7.612500000000000000e+01  1.110899762113346878e+04  1.106812105548980014e+02
7.625000000000000000e+01  1.159095053243425718e+04  1.111078484511450455e+02
7.637500000000000000e+01  1.198548253192451011e+04  1.160308072085529147e+02
7.650000000000000000e+01  1.264229484584229249e+04  1.160331980739928639e+02
7.662500000000000000e+01  1.295943913681383674e+04  1.220797178706474995e+02
7.675000000000000000e+01  1.376428686048018608e+04  1.205170021436926220e+02
7.687500000000000000e+01  1.401982949664424450e+04  1.301091739014578081e+02
7.700000000000000000e+01  1.419550967184350156e+04  1.233552961890708985e+02
7.712500000000000000e+01  1.443215997590536062e+04  1.203516063437538008e+02
7.725000000000000000e+01  1.426029947344377979e+04  1.178255512695370300e+02
7.737500000000000000e+01  1.445819130767967545e+04  1.234796072750405926e+02
7.750000000000000000e+01  1.384561813109606192e+04  1.217106076792288860e+02
7.762500000000000000e+01  1.400123157445363904e+04  1.213012356168580084e+02
7.775000000000000000e+01  1.343975689055730800e+04  1.210641530456144181e+02
7.787500000000000000e+01  1.288546718569371660e+04  1.180118478159198645e+02
7.800000000000000000e+01  1.245347938513723420e+04  1.183151680721525310e+02
7.812500000000000000e+01  1.205914631776761780e+04  1.125206309224699339e+02
7.825000000000000000e+01  1.145468041703097151e+04  1.174730894345739500e+02
7.837500000000000000e+01  1.098633145744317517e+04  1.096770218517299327e+02
7.850000000000000000e+01  1.067362834642720918e+04  1.017274459337965737e+02
7.862500000000000000e+01  1.032688959300854731e+04  1.001243110897472519e+02
7.875000000000000000e+01  1.007459951701961108e+04  1.022709752230623650e+02
7.887500000000000000e+01  1.006152380258988524e+04  1.031964728885139380e+02
7.900000000000000000e+01  1.000531460843295827e+04  1.023297240698595800e+02
7.912500000000000000e+01  9.873550860399431258e+03  1.026048463361904624e+02
7.925000000000000000e+01  9.706633918901345169e+03  1.009302295523609843e+02
7.937500000000000000e+01  9.898063866748725559e+03  1.038455249137151526e+02
7.950000000000000000e+01  9.590857193369827655e+03  1.021228983184179810e+02
7.962500000000000000e+01  9.626405611079304435e+03  1.065987652325922568e+02
7.975000000000000000e+01  9.758099032519066895e+03  1.042589071391962108e+02
7.987500000000000000e+01  9.970841588500450598e+03  9.855228039859555622e+01
8.000000000000000000e+01  9.637238328458723117e+03  9.502313164329328288e+01
8.012500000000000000e+01  9.809128419038446737e+03  1.001035707880731565e+02
8.025000000000000000e+01  9.455407580622340902e+03  9.795851804986841671e+01
8.037500000000000000e+01  9.569053786511742146e+03  9.798065461013861466e+01
8.050000000000000000e+01  9.753297185752766381e+03  1.044583171958309009e+02
8.062500000000000000e+01  9.779348252982750637e+03  9.998727300002575191e+01
8.075000000000000000e+01  9.629838627718210773e+03  1.048395105941264518e+02
8.087500000000000000e+01  9.587525485810198006e+03  9.987547588220934358e+01
8.100000000000000000e+01  9.869156554566545310e+03  1.089467506604560469e+02
8.112500000000000000e+01  9.615470036072929361e+03  1.020155191283316753e+02
8.125000000000000000e+01  9.772773130895853683e+03  9.827467778248414731e+01
8.137500000000000000e+01  9.644519229240308050e+03  9.359200968853564007e+01
8.150000000000000000e+01  9.698559123272130819e+03  9.761232209198868759e+01
8.162500000000000000e+01  9.484468404725575965e+03  9.749864365278473599e+01
8.175000000000000000e+01  9.573339587677101008e+03  9.676459522018808457e+01
8.187500000000000000e+01  9.707872589797336332e+03  1.015654559220869544e+02
8.200000000000000000e+01  9.768999178606954956e+03  9.897511395947594792e+01
8.212500000000000000e+01  9.668149088702431982e+03  1.076233661752267921e+02
8.225000000000000000e+01  9.678198191712986954e+03  1.015891362521590366e+02
8.237500000000000000e+01  9.780593368509547872e+03  1.072848904772624508e+02
8.250000000000000000e+01  9.881090275052887591e+03  1.025503864259520981e+02
8.262500000000000000e+01  9.876906551193897030e+03  9.981766802150329454e+01
8.275000000000000000e+01  1.001640181633279281e+04  9.199430847478153339e+01
8.287500000000000000e+01  1.033584197166824379e+04  9.912681191412984560e+01
8.300000000000000000e+01  1.028620443341901591e+04  1.020288104544004142e+02
8.312500000000000000e+01  1.026785733438491297e+04  9.891705693224776041e+01
8.325000000000000000e+01  1.050080151782187932e+04  1.042805882060351195e+02
8.337500000000000000e+01  1.075758174297627011e+04  1.079217212723411876e+02
8.350000000000000000e+01  1.083881633779871481e+04  1.129717772048227857e+02
8.362500000000000000e+01  1.079430882525042762e+04  1.059029275879512255e+02
8.375000000000000000e+01  1.103548587239865083e+04  1.150403898152318192e+02
8.387500000000000000e+01  1.088055821102132359e+04  1.055618871932819616e+02
8.400000000000000000e+01  1.090381292447675332e+04  1.145234671235821793e+02
8.412500000000000000e+01  1.114758001148605763e+04  9.013167973000057032e+01
8.425000000000000000e+01  1.100958095178053190e+04  1.007428129165242723e+02
8.437500000000000000e+01  1.111816404343690010e+04  1.050708482687484917e+02
8.450000000000000000e+01  1.097029067025417680e+04  9.936922714834088310e+01
8.462500000000000000e+01  1.093251675958562737e+04  1.142341941278922661e+02
8.475000000000000000e+01  1.066689354099236880e+04  1.042422749997887053e+02
8.487500000000000000e+01  1.042770624656642394e+04  1.104776197908546607e+02
8.500000000000000000e+01  1.054840149262594969e+04  1.059298585784304834e+02
8.512500000000000000e+01  1.057352072563826732e+04  1.115104637777147474e+02
8.525000000000000000e+01  1.045475424551869583e+04  1.050901576174868239e+02
8.537500000000000000e+01  1.017222791449884608e+04  1.042606477580219035e+02
8.550000000000000000e+01  1.012516216671291477e+04  8.702434701223816660e+01
8.562500000000000000e+01  9.981531847570828177e+03  9.332203156559899071e+01
8.575000000000000000e+01  9.988758969294143753e+03  9.634014630664849221e+01
8.587500000000000000e+01  1.007846494865765635e+04  1.000322358254975512e+02
8.600000000000000000e+01  1.024360421029567806e+04  1.106850858660735639e+02
8.612500000000000000e+01  1.024559189122330281e+04  1.020586632692846365e+02
8.625000000000000000e+01  1.026101291601300727e+04  1.089380175430354001e+02
8.637500000000000000e+01  1.051378848692332576e+04  1.050801066951816978e+02
8.650000000000000000e+01  1.050637275744780709e+04  1.102275968941292206e+02
8.662500000000000000e+01  1.031392291378858317e+04  1.034292375849633601e+02
8.675000000000000000e+01  1.035754774609390370e+04  1.085587096602953494e+02
8.687500000000000000e+01  1.072560032991603657e+04  8.584051972623440463e+01
8.700000000000000000e+01  1.072208415439585951e+04  9.358645819369972685e+01
8.712500000000000000e+01  1.082422644513014893e+04  1.051987096044983758e+02
8.725000000000000000e+01  1.105559797225090733e+04  1.070939049972987789e+02
8.737500000000000000e+01  1.086281108461624353e+04  1.128912247576763832e+02
8.750000000000000000e+01  1.076190104795518164e+04  1.057122441210986779e+02
8.762500000000000000e+01  1.074021885200688666e+04  1.101633338506623545e+02
8.775000000000000000e+01  1.051645316863349035e+04  1.042664938732675495e+02
8.787500000000000000e+01  1.067338005757540486e+04  9.057279216199952998e+01
8.800000000000000000e+01  1.098586212617937599e+04  2.927742093856766132e+02
8.812500000000000000e+01  1.055974280606463253e+04  9.521786510486123234e+01
8.825000000000000000e+01  1.061799218381319952e+04  8.136213323489499771e+01
8.837500000000000000e+01  1.034460491371347598e+04  9.222296229866547890e+01
8.850000000000000000e+01  1.019223766922586765e+04  1.082261513813635645e+02
8.862500000000000000e+01  9.874076455605716546e+03  1.000345756972168942e+02
8.875000000000000000e+01  9.963147428693748225e+03  1.061291465306344151e+02
8.887500000000000000e+01  9.967618016183796499e+03  1.013417372403893779e+02
8.900000000000000000e+01  1.005440805394195013e+04  1.071681724720495055e+02
8.912500000000000000e+01  9.834821124317510112e+03  1.001469816477382579e+02
8.925000000000000000e+01  1.012352584956016835e+04  1.081138979083163747e+02
8.937500000000000000e+01  1.016198021282644004e+04  1.019157877158634022e+02
8.950000000000000000e+01  1.010329487933848577e+04  1.083560614364477459e+02
8.962500000000000000e+01  1.036326272802312269e+04  7.459060043611636104e+01
8.975000000000000000e+01  1.062336250633814961e+04  1.031200035424808306e+02
8.987500000000000000e+01  1.058378182168476997e+04  1.098728250376643132e+02
9.000000000000000000e+01  1.075495181900708121e+04  1.034943636470615900e+02
9.012500000000000000e+01  1.067072536305696121e+04  1.100308688859283563e+02
9.025000000000000000e+01  1.097755078139729449e+04  1.050543455965803474e+02
9.037500000000000000e+01  1.121111062779201166e+04  1.142979735833603883e+02
9.050000000000000000e+01  1.097951599141933366e+04  1.051116655339019417e+02
9.062500000000000000e+01  1.088875140244622344e+04  1.102972994445111539e+02
9.075000000000000000e+01  1.112232512877709087e+04  1.074232267811452033e+02
9.087500000000000000e+01  1.145082156002886222e+04  1.065250317056483453e+02
9.100000000000000000e+01  1.113501036642878171e+04  7.970268808891617596e+01
9.112500000000000000e+01  1.104293526930316693e+04  1.053717116262094180e+02
9.125000000000000000e+01  1.101557275155781281e+04  1.114276916482882029e+02
9.137500000000000000e+01  1.103851600366347338e+04  1.048580117662777695e+02
9.150000000000000000e+01  1.093279468487210761e+04  1.125061329456919310e+02
9.162500000000000000e+01  1.096201635706325396e+04  1.041031419342424016e+02
9.175000000000000000e+01  1.072107890189608588e+04  1.113401445337740938e+02
9.187500000000000000e+01  1.067025916387156212e+04  1.020528544032816001e+02
9.200000000000000000e+01  1.031443549461312796e+04  1.086814396835557801e+02
9.212500000000000000e+01  1.061670166849424459e+04  1.037666405794947053e+02
9.225000000000000000e+01  1.013865377181739132e+04  8.998726355653786868e+01
9.237500000000000000e+01  1.023313666164729511e+04  8.130760814598522757e+01
9.250000000000000000e+01  1.007660795858687015e+04  1.002560708473051960e+02
9.262500000000000000e+01  1.006390575781842381e+04  1.072206922944499183e+02
9.275000000000000000e+01  1.011139265711271582e+04  1.020312295421604460e+02
9.287500000000000000e+01  1.013671600867607776e+04  1.049831107814285218e+02
9.300000000000000000e+01  1.001286022653714099e+04  1.014874832571803296e+02
9.312500000000000000e+01  1.030259971889582630e+04  1.081492494737721444e+02
9.325000000000000000e+01  1.024316570655810210e+04  9.987748898454236723e+01
9.337500000000000000e+01  1.030766043278485813e+04  1.069948111999090514e+02
9.350000000000000000e+01  1.016810445935528878e+04  9.444919944948668444e+01
9.362500000000000000e+01  1.023018429430528704e+04  9.278720905643517369e+01
9.375000000000000000e+01  1.040750644584326983e+04  8.482720503878870488e+01
9.387500000000000000e+01  1.029097719524438617e+04  1.010036388335048940e+02
9.400000000000000000e+01  1.029390407905393477e+04  1.069211634904604153e+02
9.412500000000000000e+01  1.043384007604386898e+04  1.035237681796395321e+02
9.425000000000000000e+01  1.012371504245545475e+04  1.046577991229700899e+02
9.437500000000000000e+01  1.015027565518907613e+04  1.015179853919482156e+02
9.450000000000000000e+01  1.018050058916881972e+04  1.050038460521888339e+02
9.462500000000000000e+01  1.021873092770226503e+04  1.025726807613368834e+02
9.475000000000000000e+01  9.946752341699100725e+03  9.884673831741820038e+01
9.487500000000000000e+01  1.019848975511963909e+04  9.451558249828059388e+01
9.500000000000000000e+01  1.027350642174398308e+04  9.347666426414521368e+01
9.512500000000000000e+01  9.988352330254272601e+03  8.547049095102322269e+01
9.525000000000000000e+01  1.017196837582513945e+04  1.007224324407561937e+02
9.537500000000000000e+01  1.010367520155474085e+04  1.062485743266521183e+02
9.550000000000000000e+01  1.020779252882596302e+04  1.001920257998036163e+02
9.562500000000000000e+01  9.988099645066384255e+03  1.037224428170784734e+02
9.575000000000000000e+01  9.876248768240697245e+03  9.969399365721196205e+01
9.587500000000000000e+01  1.015042402330367258e+04  1.052323657485580526e+02
9.600000000000000000e+01  1.003947958961734366e+04  9.718710401199206217e+01
9.612500000000000000e+01  9.948190971436020845e+03  9.732104174556926068e+01
9.625000000000000000e+01  1.026140761228285010e+04  9.619552975181353816e+01
9.637500000000000000e+01  1.026809674292897034e+04  9.455755119845774459e+01
9.650000000000000000e+01  1.038261390469263097e+04  8.894519918681540105e+01
9.662500000000000000e+01  1.036671938368915653e+04  9.683871857563698882e+01
9.675000000000000000e+01  1.058798115449540455e+04  1.075268333844375519e+02
9.687500000000000000e+01  1.081109183361134637e+04  1.028881483680739990e+02
9.700000000000000000e+01  1.076599898946729809e+04  1.091659509034074347e+02
9.712500000000000000e+01  1.069501186679762395e+04  1.028176421848378936e+02
9.725000000000000000e+01  1.100718359864740523e+04  1.061281579245830073e+02
9.737500000000000000e+01  1.115725618255732661e+04  1.004302708683676855e+02
9.750000000000000000e+01  1.104049936858860201e+04  1.023146019199754733e+02
9.762500000000000000e+01  1.101066572089713191e+04  9.907464320249403045e+01
9.775000000000000000e+01  1.122679801568814401e+04  9.868973677040123960e+01
9.787500000000000000e+01  1.111317087722853830e+04  9.353672659772921349e+01
9.800000000000000000e+01  1.126474010711114533e+04  9.812506273591273498e+01
9.812500000000000000e+01  1.128657392479433111e+04  1.101614216356627196e+02
9.825000000000000000e+01  1.130243056926953977e+04  1.040032471864746952e+02
9.837500000000000000e+01  1.107290147363916549e+04  1.077428238895263490e+02
9.850000000000000000e+01  1.093433477528456388e+04  9.911675550841118820e+01
9.862500000000000000e+01  1.095663996545363079e+04  1.043394885819110840e+02
9.875000000000000000e+01  1.098300233277961888e+04  9.606532768893809759e+01
9.887500000000000000e+01  1.089450354758209323e+04  1.006208686306265889e+02
9.900000000000000000e+01  1.084127604736823196e+04  9.745582426748937621e+01
9.912500000000000000e+01  1.067465665452469329e+04  9.460686598419216864e+01
9.925000000000000000e+01  1.071572676523808695e+04  9.296257903516077192e+01
9.937500000000000000e+01  1.044698811363892855e+04  8.845759575369281436e+01
9.950000000000000000e+01  1.047972547099651092e+04  1.045987056120941787e+02
9.962500000000000000e+01  1.040448190906226773e+04  9.749394923533178314e+01
9.975000000000000000e+01  1.041069144151392538e+04  1.008042366203355300e+02
9.987500000000000000e+01  1.030318857313107947e+04  9.276130849056346506e+01
1.000000000000000000e+02  1.020889456170772246e+04  9.604145128902351303e+01
1.001250000000000000e+02  1.043681138114509486e+04  9.515574659573204030e+01
1.002500000000000000e+02  1.027250247004936500e+04  9.565443445696369906e+01
1.003750000000000000e+02  1.040814307052761433e+04  9.243378829943182495e+01
1.005000000000000000e+02  1.054371348612546353e+04  9.322327813935156371e+01
1.006250000000000000e+02  1.074132962885037887e+04  9.298545654331418575e+01
1.007500000000000000e+02  1.074698188809513340e+04  8.966409840711374102e+01
1.008750000000000000e+02  1.071753340303331242e+04  1.026694818616900164e+02
1.010000000000000000e+02  1.088146567363807299e+04  9.843953736325320847e+01
1.011250000000000000e+02  1.083658672786133138e+04  1.015696937965417419e+02
1.012500000000000000e+02  1.108444576433705151e+04  9.715351777164431724e+01
1.013750000000000000e+02  1.109902883357918654e+04  1.015910793666874241e+02
1.015000000000000000e+02  1.113521542332996432e+04  9.816956121241017286e+01
1.016250000000000000e+02  1.121131920591274320e+04  1.009619125623446507e+02
1.017500000000000000e+02  1.111755874043191398e+04  9.809780374174098938e+01
1.018750000000000000e+02  1.101473795914614857e+04  9.863329238072307703e+01
1.020000000000000000e+02  1.104096748188612219e+04  9.712375362908038312e+01
1.021250000000000000e+02  1.116385428672125454e+04  9.228847572142311151e+01
1.022500000000000000e+02  1.100487871638370962e+04  1.050899389707315237e+02
1.023750000000000000e+02  1.099569152263430624e+04  9.919321032060940979e+01
1.025000000000000000e+02  1.100477394974964409e+04  8.842956261018836983e+01
1.026250000000000000e+02  1.078886890037895864e+04  1.798144816729826516e+02
1.027500000000000000e+02  1.090260326671945040e+04  9.073852820549379317e+01
1.028750000000000000e+02  1.078297912656584049e+04  9.809195860987838955e+01
1.030000000000000000e+02  1.073824193482121336e+04  1.005023471412477392e+02
1.031250000000000000e+02  1.072249976397982391e+04  9.935483526659132281e+01
1.032500000000000000e+02  1.074691403221366636e+04  9.805643801545943461e+01
1.033750000000000000e+02  1.038052976128620503e+04  9.517415730636575688e+01
1.035000000000000000e+02  1.081675512691243603e+04  9.256931475360737238e+01
1.036250000000000000e+02  1.067616463123104950e+04  1.029604979591095315e+02
1.037500000000000000e+02  1.073164234785090412e+04  1.007321862487268049e+02
1.038750000000000000e+02  1.079628343449319436e+04  1.024737874625946574e+02
1.040000000000000000e+02  1.073475794217531256e+04  9.940016794446134440e+01
1.041250000000000000e+02  1.102126808272876951e+04  1.035146094064310205e+02
1.042500000000000000e+02  1.130726317546022074e+04  1.020122308355177978e+02
1.043750000000000000e+02  1.111884812086241618e+04  1.027016604043407000e+02
1.045000000000000000e+02  1.117187683831935101e+04  1.005293004563798576e+02
1.046250000000000000e+02  1.140843149570374044e+04  1.022530213035023223e+02
1.047500000000000000e+02  1.139840630470872748e+04  1.006543106849024980e+02
1.048750000000000000e+02  1.174960686861597605e+04  9.508320609689816649e+01
1.050000000000000000e+02  1.172321327168144853e+04  1.071563056561247294e+02
1.051250000000000000e+02  1.179392832480409743e+04  1.044446890445441198e+02
1.052500000000000000e+02  1.190526581510705000e+04  1.096712338877459132e+02
1.053750000000000000e+02  1.175432429315609079e+04  1.046411266275804337e+02
1.055000000000000000e+02  1.181808277800259202e+04  1.064260340975733925e+02
1.056250000000000000e+02  1.213383181053943372e+04  1.060664221976778805e+02
1.057500000000000000e+02  1.221855432954215212e+04  1.085461386591808122e+02
1.058750000000000000e+02  1.194989555131470479e+04  1.054626087380541009e+02
1.060000000000000000e+02  1.199353750814186060e+04  1.037633700926990628e+02
1.061250000000000000e+02  1.210056154561440599e+04  1.044433347348850987e+02
1.062500000000000000e+02  1.191767122286961603e+04  9.447169845115112707e+01
1.063750000000000000e+02  1.185630525628181385e+04  1.091415122675003317e+02
1.065000000000000000e+02  1.190643749680916153e+04  1.039160313919006171e+02
1.066250000000000000e+02  1.154799522263344988e+04  1.071834904525879750e+02
1.067500000000000000e+02  1.148920296722866806e+04  1.031719283742697684e+02
1.068750000000000000e+02  1.138760865092255335e+04  1.056084570148042161e+02
1.070000000000000000e+02  1.134866159352662180e+04  1.015420768370242115e+02
1.071250000000000000e+02  1.131335655693901208e+04  1.037050122589834587e+02
1.072500000000000000e+02  1.094933559829982369e+04  1.012785944801755846e+02
1.073750000000000000e+02  1.083296675007795238e+04  9.870200633295301884e+01
1.075000000000000000e+02  1.084941909491734441e+04  9.795741205794239193e+01
1.076250000000000000e+02  1.095927015156534981e+04  9.025556132096156148e+01
1.077500000000000000e+02  1.095255256746901796e+04  1.050076303011833829e+02
1.078750000000000000e+02  1.062945613254469936e+04  9.977741448378488087e+01
1.080000000000000000e+02  1.082060448440378423e+04  1.031610378391003167e+02
1.081250000000000000e+02  1.061693055215905406e+04  9.941486606128036385e+01
1.082500000000000000e+02  1.065451617136803725e+04  1.010508404803400282e+02
1.083750000000000000e+02  1.076230623657694923e+04  1.009222490116704449e+02
1.085000000000000000e+02  1.080964557487069760e+04  1.019369710206048865e+02
1.086250000000000000e+02  1.091064408268270927e+04  1.000808063499774789e+02
1.087500000000000000e+02  1.097500395126153126e+04  9.925324833968448957e+01
1.088750000000000000e+02  1.100570828557468849e+04  9.824567428802885161e+01
1.090000000000000000e+02  1.101978673390291624e+04  9.460177137778696022e+01
1.091250000000000000e+02  1.141755508609478784e+04  1.009533804881060348e+02
1.092500000000000000e+02  1.134790850556644909e+04  1.037301570204807604e+02
1.093750000000000000e+02  1.126050505238788355e+04  1.057895853414339484e+02
1.095000000000000000e+02  1.140077292914325699e+04  1.022172295075060617e+02
1.096250000000000000e+02  1.154086009699805982e+04  1.045460405373171682e+02
1.097500000000000000e+02  1.138912872288284234e+04  1.046858595406548318e+02
1.098750000000000000e+02  1.161751253120873662e+04  1.055962977924318409e+02
1.100000000000000000e+02  1.151279562502248700e+04  1.020952496691036515e+02
1.101250000000000000e+02  1.147463994279325379e+04  1.020542684458452101e+02
1.102500000000000000e+02  1.139734787834196322e+04  1.002432018507251144e+02
1.103750000000000000e+02  1.157153734491080468e+04  9.744646855983194200e+01
1.105000000000000000e+02  1.148560279063925736e+04  1.014757517426543245e+02
1.106250000000000000e+02  1.151918215480977415e+04  1.038101231314018094e+02
1.107500000000000000e+02  1.145618207212211928e+04  1.062901237151470895e+02
1.108750000000000000e+02  1.143710781845233760e+04  1.031333134462650634e+02
1.110000000000000000e+02  1.162867971792480967e+04  1.064658160637268765e+02
1.111250000000000000e+02  1.159886095685201872e+04  1.040769470609697152e+02
1.112500000000000000e+02  1.123695252203545351e+04  1.017763081353430294e+02
1.113750000000000000e+02  1.104495300018940543e+04  1.005708714725092960e+02
1.115000000000000000e+02  1.092386280820779393e+04  9.787056015264994357e+01
1.116250000000000000e+02  1.095307439502347734e+04  9.950763515356983646e+01
1.117500000000000000e+02  1.106879336868625433e+04  9.693816440841816018e+01
1.118750000000000000e+02  1.096949830407868103e+04  9.649879649538061699e+01
1.120000000000000000e+02  1.075953107168267343e+04  1.007148326480951823e+02
1.121250000000000000e+02  1.056660037019743686e+04  9.917865647963886033e+01
1.122500000000000000e+02  1.063984082695476536e+04  1.049802555344425485e+02
1.123750000000000000e+02  1.067396406161192499e+04  1.017815074019212744e+02
1.125000000000000000e+02  1.060097570807330158e+04  9.742490436295936718e+01
1.126250000000000000e+02  1.044147947526824464e+04  9.860549737418054406e+01
1.127500000000000000e+02  1.038607619260066167e+04  9.870484383085936031e+01
1.128750000000000000e+02  1.049306815072595782e+04  9.719971391109359615e+01
1.130000000000000000e+02  1.037181439911046436e+04  9.571989037448483373e+01
1.131250000000000000e+02  1.022288657274053548e+04  9.300453515254224612e+01
1.132500000000000000e+02  1.001774862441482583e+04  9.282858635840639749e+01
1.133750000000000000e+02  1.032786507743299444e+04  9.787796859310790865e+01
1.135000000000000000e+02  1.020555027310344667e+04  1.019332561276872013e+02
1.136250000000000000e+02  1.031007089897144033e+04  9.792063353978159057e+01
1.137500000000000000e+02  1.004864550547393628e+04  9.663946277439593757e+01
1.138750000000000000e+02  1.017420153441221919e+04  9.584239254242309869e+01
1.140000000000000000e+02  1.023909419177740710e+04  9.908233778448143880e+01
1.141250000000000000e+02  1.024057576204913494e+04  9.639069516735588650e+01
1.142500000000000000e+02  1.001276141589611689e+04  9.618322421713918402e+01
1.143750000000000000e+02  1.022739555427347113e+04  9.614745075487604709e+01
1.145000000000000000e+02  9.952544240573668503e+03  9.316101426113370110e+01
1.146250000000000000e+02  1.012920916601698809e+04  9.154436458707836266e+01
1.147500000000000000e+02  1.006232606987431973e+04  9.788180834191771851e+01
1.148750000000000000e+02  1.008547763934348586e+04  9.952020204345915033e+01
1.150000000000000000e+02  1.016728807328987750e+04  9.679181617930252912e+01
1.151250000000000000e+02  1.008398245787979249e+04  9.697930400918980354e+01
1.152500000000000000e+02  1.009558841086762368e+04  9.749301099140663496e+01
1.153750000000000000e+02  1.026022702826665591e+04  9.820760059496241468e+01
1.155000000000000000e+02  1.008975305760050105e+04  9.632469393097859722e+01
1.156250000000000000e+02  1.005415091941318315e+04  9.660756193975682038e+01
1.157500000000000000e+02  1.016181988789723619e+04  9.587475855664408186e+01
1.158750000000000000e+02  1.003098822481918614e+04  9.276824000494210054e+01
1.160000000000000000e+02  1.003458596932849468e+04  9.172903242872659746e+01
1.161250000000000000e+02  1.011356205683036023e+04  9.715600430690255962e+01
1.162500000000000000e+02  1.015961117452349754e+04  9.958488938509464106e+01
1.163750000000000000e+02  1.018928319392438061e+04  9.735922071723831550e+01
1.165000000000000000e+02  1.000786606886846130e+04  9.781593886336274579e+01
1.166250000000000000e+02  1.024816047920981691e+04  9.753520044978020564e+01
1.167500000000000000e+02  1.006177577665537137e+04  9.730269106915987720e+01
1.168750000000000000e+02  9.994132160643488533e+03  9.526433363152088418e+01
1.170000000000000000e+02  9.979270108181772230e+03  9.154908410175150379e+01
1.171250000000000000e+02  1.006020513759969799e+04  8.986266968226898655e+01
1.172500000000000000e+02  1.017093085858489940e+04  1.029416915504203729e+02
1.173750000000000000e+02  1.007604216933872704e+04  8.597568496620992562e+01
1.175000000000000000e+02  1.016424192769216643e+04  1.240834138246799938e+02
1.176250000000000000e+02  1.015622655500554356e+04  1.070500807601589770e+02
1.177500000000000000e+02  9.947333095100357241e+03  9.044151331742780542e+01
1.178750000000000000e+02  1.014485497319253591e+04  9.847517489395831092e+01
1.180000000000000000e+02  9.954613135111078009e+03  9.637910371980322566e+01
1.181250000000000000e+02  9.982943781537480390e+03  9.611878801565482888e+01
1.182500000000000000e+02  1.007631171899077526e+04  9.589097244325031966e+01
1.183750000000000000e+02  1.011895950774973062e+04  9.626632022364644570e+01
1.185000000000000000e+02  1.000069380616084527e+04  9.561399611303879453e+01
1.186250000000000000e+02  1.009540128987129719e+04  9.458113863101520735e+01
1.187500000000000000e+02  1.010562580987265028e+04  9.034050021178478573e+01
1.188750000000000000e+02  1.021091942766627653e+04  9.716316437071168366e+01
1.190000000000000000e+02  1.019381803825965653e+04  9.875060639431976028e+01
1.191250000000000000e+02  1.028521229761687573e+04  9.756140907763546011e+01
1.192500000000000000e+02  1.016560113856862154e+04  9.912118429252706164e+01
1.193750000000000000e+02  1.037660200508747221e+04  9.673287666738070811e+01
1.195000000000000000e+02  1.013795271136657357e+04  9.743528274055944394e+01
1.196250000000000000e+02  1.014553923933972146e+04  9.676911629418327720e+01
1.197500000000000000e+02  1.036363579046386621e+04  9.809370385236785239e+01
1.198750000000000000e+02  1.048897535924075964e+04  9.671469746577787419e+01
1.200000000000000000e+02  1.032092747739906736e+04  9.515710447433265529e+01
1.201250000000000000e+02  1.054076939457149092e+04  9.278112990745691491e+01
1.202500000000000000e+02  1.045662152951795906e+04  9.649845304596279050e+01
1.203750000000000000e+02  1.042202480155387639e+04  1.008430900201529425e+02
1.205000000000000000e+02  1.051605580436367927e+04  9.801586006685454322e+01
1.206250000000000000e+02  1.090772738118872439e+04  1.025251102658886140e+02
1.207500000000000000e+02  1.086825453760495293e+04  1.007010781162322957e+02
1.208750000000000000e+02  1.110289671764304512e+04  1.021369023214860476e+02
1.210000000000000000e+02  1.121918469589807864e+04  1.011887793130679256e+02
1.211250000000000000e+02  1.102764194630614475e+04  9.979868634683789708e+01
1.212500000000000000e+02  1.126552852745505879e+04  9.960527670670487055e+01
1.213750000000000000e+02  1.141474757303711522e+04  1.013294069462023970e+02
1.215000000000000000e+02  1.143007260468716231e+04  9.751854952998769477e+01
1.216250000000000000e+02  1.156945957828840073e+04  1.000307924982704577e+02
1.217500000000000000e+02  1.174926976618739172e+04  1.060690292213272414e+02
1.218750000000000000e+02  1.191762121399379430e+04  1.058017845180619219e+02
1.220000000000000000e+02  1.197555467161212800e+04  1.067121311465534035e+02
1.221250000000000000e+02  1.246338044137937322e+04  1.073233633350904057e+02
1.222500000000000000e+02  1.229604499698797008e+04  1.077812851196712103e+02
1.223750000000000000e+02  1.245721982400582783e+04  1.054372267899323958e+02
1.225000000000000000e+02  1.252350956885969754e+04  1.081180843112086194e+02
1.226250000000000000e+02  1.262102451307801130e+04  1.063938922179623177e+02
1.227500000000000000e+02  1.261515795247662572e+04  1.049333870489404319e+02
1.228750000000000000e+02  1.274688974356422113e+04  1.049740228921853458e+02
1.230000000000000000e+02  1.296830144662800012e+04  1.043188145290574482e+02
1.231250000000000000e+02  1.289186883527902319e+04  1.117656733175874280e+02
1.232500000000000000e+02  1.300913900581675443e+04  1.101362589374225962e+02
1.233750000000000000e+02  1.339662224697189231e+04  1.129601975486112337e+02
1.235000000000000000e+02  1.327938017953676717e+04  1.106538174700570636e+02
1.236250000000000000e+02  1.317366151404568700e+04  1.100713629823970621e+02
1.237500000000000000e+02  1.317735849864719057e+04  1.097161224332749043e+02
1.238750000000000000e+02  1.331699122121487926e+04  1.118679976024478293e+02
1.240000000000000000e+02  1.330992165770157771e+04  1.080644155095323100e+02
1.241250000000000000e+02  1.335355325266795080e+04  1.083543992080992666e+02
1.242500000000000000e+02  1.337002953134919517e+04  1.083170652076464222e+02
1.243750000000000000e+02  1.328851878498013320e+04  1.056809978645322730e+02
1.245000000000000000e+02  1.323053263179036367e+04  1.155031585268025509e+02
1.246250000000000000e+02  1.336946249466972768e+04  1.102657176751415307e+02
1.247500000000000000e+02  1.331282760984451306e+04  1.131379081518367542e+02
1.248750000000000000e+02  1.317257671855098670e+04  1.080809185158375243e+02
1.250000000000000000e+02  1.319810905710241423e+04  1.121548826315258225e+02
1.251250000000000000e+02  1.309450470569848221e+04  1.084414762337261209e+02
1.252500000000000000e+02  1.307467635973506913e+04  1.107983634201136880e+02
1.253750000000000000e+02  1.292221323429242875e+04  1.082086336601943941e+02
1.255000000000000000e+02  1.282474221597486758e+04  1.074037238163576120e+02
1.256250000000000000e+02  1.258972653041719423e+04  1.048670626052196724e+02
1.257500000000000000e+02  1.270500323521477003e+04  1.021479424488320973e+02
1.258750000000000000e+02  1.242919078836512017e+04  1.093397272364537685e+02
1.260000000000000000e+02  1.229911886346006941e+04  1.061176176196191392e+02
1.261250000000000000e+02  1.216600884365652746e+04  1.081177435413945886e+02
1.262500000000000000e+02  1.219228487565212708e+04  1.051137160521566614e+02
1.263750000000000000e+02  1.206567234345225188e+04  1.073618168019290096e+02
1.265000000000000000e+02  1.178875992880575723e+04  1.030500181080217175e+02
1.266250000000000000e+02  1.170154832516776150e+04  1.038712620665889546e+02
1.267500000000000000e+02  1.162082503394916966e+04  1.031913010100006005e+02
1.268750000000000000e+02  1.152916939454732528e+04  1.018010839785988679e+02
1.270000000000000000e+02  1.139757796784472157e+04  1.007806835235297029e+02
1.271250000000000000e+02  1.109822429183296481e+04  9.605702480178723590e+01
1.272500000000000000e+02  1.104326306755110454e+04  1.011994156679604231e+02
1.273750000000000000e+02  1.097280643526121457e+04  1.011114598082338460e+02
1.275000000000000000e+02  1.096631387514585185e+04  1.022614041724597485e+02
1.276250000000000000e+02  1.071932855828727588e+04  9.805813523739583104e+01
1.277500000000000000e+02  1.077836916545982422e+04  1.012332397529932280e+02
1.278750000000000000e+02  1.071621063231241897e+04  9.902063554293617642e+01
1.280000000000000000e+02  1.070912031626661155e+04  1.003397170308170985e+02
1.281250000000000000e+02  1.069951976896769156e+04  9.833884829083039847e+01
1.282500000000000000e+02  1.042647764784103674e+04  9.772151087510542311e+01
1.283750000000000000e+02  1.068412689258624232e+04  9.729340209622326086e+01
1.285000000000000000e+02  1.043691394983592363e+04  9.258712269488611923e+01
1.286250000000000000e+02  1.049020682661548381e+04  1.000383880779260153e+02
1.287500000000000000e+02  1.056572325087386525e+04  9.786014000241178223e+01
1.288750000000000000e+02  1.045326557404984669e+04  1.007546594880279827e+02
1.290000000000000000e+02  1.050136630254175179e+04  9.841907751809779370e+01
1.291250000000000000e+02  1.039706993798492113e+04  9.952653575814537135e+01
1.292500000000000000e+02  1.046631755270950634e+04  9.740008242097277957e+01
1.293750000000000000e+02  1.031529900408492540e+04  9.836593142356014141e+01
1.295000000000000000e+02  1.045799739734906325e+04  9.868231197498708696e+01
1.296250000000000000e+02  1.030773756489581501e+04  9.577514644326747373e+01
1.297500000000000000e+02  1.036776070868636089e+04  9.652471292705153871e+01
1.298750000000000000e+02  1.051526297618493300e+04  9.240282611897852405e+01
1.300000000000000000e+02  1.023886650281867696e+04  9.943928218561561039e+01
1.301250000000000000e+02  1.037237001761461033e+04  9.788304253212163530e+01
1.302500000000000000e+02  1.042761440364141345e+04  1.002053216516237342e+02
1.303750000000000000e+02  1.038232674457195208e+04  9.793340553760721434e+01
1.305000000000000000e+02  1.047370088212033079e+04  9.974953221066982678e+01
1.306250000000000000e+02  1.051505778488087526e+04  9.960281833068445678e+01
1.307500000000000000e+02  1.028753294633830228e+04  9.787446616036443459e+01
1.308750000000000000e+02  1.032526993223919999e+04  9.791935612231547736e+01
1.310000000000000000e+02  1.026791946837484647e+04  9.682408783170480149e+01
1.311250000000000000e+02  1.052970723364968399e+04  9.922653295391504003e+01
1.312500000000000000e+02  1.034026006059789324e+04  9.326911420298391420e+01
1.313750000000000000e+02  1.019555579795978701e+04  1.033551613972599199e+02
1.315000000000000000e+02  1.050370871201887894e+04  1.006858300778952753e+02
1.316250000000000000e+02  1.039566277426113993e+04  1.035946786735187146e+02
1.317500000000000000e+02  1.038696680078953432e+04  1.086702579799508470e+02
1.318750000000000000e+02  1.030312048093661724e+04  1.228828048721325956e+02
1.320000000000000000e+02  1.052437541292931928e+04  3.301790224147903245e+02
