# DMC at SINQ, PSI: Sample name = Unknown, wavelength = 2.450 AA, T = 0.0 K
# Filelist='dmc:2021:574-575'
#   0.000   0.125 132.000     283., sample="Unknown"
0.000000000000000000e+00  2.278580776066514954e+05  4.646296158887311321e+03
1.250000000000000000e-01  2.303298971478126768e+05  3.257682428197227637e+03
2.500000000000000000e-01  2.392073802190042334e+05  2.145465530703045715e+03
3.750000000000000000e-01  2.444229222142000799e+05  2.171211919936121376e+03
5.000000000000000000e-01  2.464113659295269463e+05  1.650277573331340591e+03
6.250000000000000000e-01  2.465890415787860984e+05  1.638185156147893622e+03
7.500000000000000000e-01  2.465045918754025188e+05  1.366205923112726168e+03
8.750000000000000000e-01  2.423140566275161400e+05  1.296260537707863023e+03
1.000000000000000000e+00  2.477106509086300503e+05  1.318673600414831071e+03
1.125000000000000000e+00  2.451619981636132579e+05  1.104703235288832275e+03
1.250000000000000000e+00  2.436845082263961958e+05  1.153375420952673039e+03
1.375000000000000000e+00  2.485956827349185478e+05  1.017809539710809076e+03
1.500000000000000000e+00  2.457756860485752986e+05  1.073563392379047627e+03
1.625000000000000000e+00  2.476766812267176574e+05  9.636933143244874600e+02
1.750000000000000000e+00  2.435363021680741804e+05  9.996539516305412008e+02
1.875000000000000000e+00  2.466997085359276389e+05  8.996451992553596710e+02
2.000000000000000000e+00  2.476912108698738739e+05  9.377938067303826983e+02
2.125000000000000000e+00  2.464887693351841008e+05  8.445904457937605230e+02
2.250000000000000000e+00  2.432741147866419924e+05  8.377017091115428684e+02
2.375000000000000000e+00  2.429794976226504659e+05  8.108782358431028570e+02
2.500000000000000000e+00  2.456999920924463368e+05  7.875282907155526573e+02
2.625000000000000000e+00  2.432964909678877739e+05  8.052379632299662262e+02
2.750000000000000000e+00  2.426336870288371283e+05  7.464662575077351221e+02
2.875000000000000000e+00  2.403900179334843415e+05  7.579850050409842197e+02
3.000000000000000000e+00  2.424552239333782927e+05  7.247032917963095997e+02
3.125000000000000000e+00  2.384850942476486089e+05  7.070206400090775105e+02
3.250000000000000000e+00  2.391473271109762136e+05  7.110743779445177779e+02
3.375000000000000000e+00  2.358436286042625143e+05  6.717637891415178046e+02
3.500000000000000000e+00  2.365027925953813829e+05  6.549992128068737429e+02
3.625000000000000000e+00  2.361518388298815698e+05  6.461745882724191006e+02
3.750000000000000000e+00  2.349562923840433359e+05  6.443836950568173734e+02
3.875000000000000000e+00  2.335441642907409696e+05  6.207045623840034523e+02
4.000000000000000000e+00  2.341162642056984478e+05  6.273352327644014395e+02
4.125000000000000000e+00  2.308483198389129830e+05  6.036947346720518226e+02
4.250000000000000000e+00  2.302115032853367738e+05  6.004362117346410059e+02
4.375000000000000000e+00  2.279124868192687281e+05  5.930477110901601918e+02
4.500000000000000000e+00  2.295847449188221944e+05  5.661790815691206262e+02
4.625000000000000000e+00  2.273892764719076513e+05  5.796636520737461069e+02
4.750000000000000000e+00  2.279980415491037129e+05  5.469120288933960410e+02
4.875000000000000000e+00  2.255304404214169772e+05  5.655519001640287797e+02
5.000000000000000000e+00  2.239832195852808654e+05  5.205759738258066136e+02
5.125000000000000000e+00  2.230780821779745747e+05  5.432565049724644268e+02
5.250000000000000000e+00  2.230733388758694637e+05  5.239278971374493494e+02
5.375000000000000000e+00  2.214756986118711357e+05  5.352825416005630359e+02
5.500000000000000000e+00  2.207554881133386807e+05  5.102281163821334076e+02
5.625000000000000000e+00  2.188482901983200572e+05  4.924546072609162479e+02
5.750000000000000000e+00  2.175157563507517043e+05  5.039165860566885158e+02
5.875000000000000000e+00  2.167809647775958001e+05  4.823743018371424682e+02
6.000000000000000000e+00  2.172816935938722745e+05  4.998972193712026524e+02
6.125000000000000000e+00  2.145296319159200648e+05  4.693763312288559177e+02
6.250000000000000000e+00  2.139036269449878600e+05  4.772459284238769328e+02
6.375000000000000000e+00  2.131972556079916540e+05  4.582630632666620158e+02
6.500000000000000000e+00  2.118198699272530794e+05  4.643777000669558674e+02
6.625000000000000000e+00  2.086796591414337454e+05  4.429517863600241867e+02
6.750000000000000000e+00  2.069730590836364136e+05  4.474541484903057267e+02
6.875000000000000000e+00  2.048273947278757696e+05  4.281766899027992395e+02
7.000000000000000000e+00  2.019698970716057229e+05  4.352941036967135346e+02
7.125000000000000000e+00  1.988708253592690744e+05  4.213781076994453656e+02
7.250000000000000000e+00  1.917833947650151968e+05  4.246509620630519066e+02
7.375000000000000000e+00  1.879355379597504216e+05  4.276655627096965873e+02
7.500000000000000000e+00  1.824014445379957615e+05  4.218471168191659899e+02
7.625000000000000000e+00  1.772835588731091702e+05  4.108963420868668095e+02
7.750000000000000000e+00  1.703881018242714053e+05  4.062528954684600535e+02
7.875000000000000000e+00  1.679161534065155429e+05  3.961542887799580512e+02
8.000000000000000000e+00  1.619615466045701760e+05  3.930468781656514352e+02
8.125000000000000000e+00  1.611610594121397880e+05  3.880133626512598539e+02
8.250000000000000000e+00  1.558459457422978303e+05  3.776300181224311814e+02
8.375000000000000000e+00  1.545136622268253122e+05  3.885627139969931818e+02
8.500000000000000000e+00  1.507421873311947274e+05  3.698629637952572011e+02
8.625000000000000000e+00  1.468067953747242573e+05  3.719835766538815278e+02
8.750000000000000000e+00  1.466141608211104176e+05  3.672349624006283761e+02
8.875000000000000000e+00  1.410105695968206564e+05  3.641180695620065535e+02
9.000000000000000000e+00  1.413464692005861434e+05  3.580756244535260180e+02
9.125000000000000000e+00  1.371769844946470985e+05  3.371235688511034709e+02
9.250000000000000000e+00  1.356299640586072346e+05  3.578776511509070133e+02
9.375000000000000000e+00  1.331672781406897411e+05  3.278868474096960881e+02
9.500000000000000000e+00  1.297791415482556768e+05  3.535901376917011589e+02
9.625000000000000000e+00  1.303965721287710185e+05  3.287041614687578317e+02
9.750000000000000000e+00  1.262331836908925325e+05  3.377767422265035862e+02
9.875000000000000000e+00  1.268407211352860613e+05  3.271601744818821089e+02
1.000000000000000000e+01  1.239800624870149331e+05  3.251103693529854013e+02
1.012500000000000000e+01  1.229032661727156519e+05  3.285702075613698412e+02
1.025000000000000000e+01  1.218087258020774898e+05  3.221821767025431313e+02
1.037500000000000000e+01  1.221912761658646632e+05  3.292596711891662267e+02
1.050000000000000000e+01  1.201247514316863089e+05  3.095700592902194330e+02
1.062500000000000000e+01  1.192231859368999285e+05  3.232738036316338821e+02
1.075000000000000000e+01  1.193766756811243249e+05  3.138656217923848430e+02
1.087500000000000000e+01  1.186792839041625703e+05  3.224516269098496082e+02
1.100000000000000000e+01  1.187388948720498593e+05  3.187876942128496580e+02
1.112500000000000000e+01  1.172439022618240706e+05  3.173149502930471613e+02
1.125000000000000000e+01  1.175840327607899817e+05  3.235756702415939685e+02
1.137500000000000000e+01  1.162674607496840763e+05  3.191452353552932664e+02
1.150000000000000000e+01  1.164562243569804850e+05  3.194251982815010251e+02
1.162500000000000000e+01  1.153413282369318185e+05  3.185677609229678637e+02
1.175000000000000000e+01  1.152425542743253027e+05  3.191114906154787718e+02
1.187500000000000000e+01  1.149723558754038531e+05  3.105546716950715336e+02
1.200000000000000000e+01  1.133868860046360787e+05  3.183718870287374898e+02
1.212500000000000000e+01  1.134092417871824000e+05  3.054069469789685627e+02
1.225000000000000000e+01  1.127445436952845630e+05  3.246319586274457265e+02
1.237500000000000000e+01  1.130697198281718302e+05  3.064805331291316293e+02
1.250000000000000000e+01  1.124515644982267113e+05  3.250764876621707344e+02
1.262500000000000000e+01  1.109671349658515101e+05  3.113138862627438925e+02
1.275000000000000000e+01  1.103205095093265409e+05  3.150330545049879447e+02
1.287500000000000000e+01  1.102206295842975524e+05  3.069807628116881233e+02
1.300000000000000000e+01  1.103955632541251689e+05  3.208753085943371843e+02
1.312500000000000000e+01  1.096670144347302557e+05  3.103776521530571699e+02
1.325000000000000000e+01  1.085916349097753846e+05  3.072012849708004296e+02
1.337500000000000000e+01  1.091461271346188587e+05  3.114497080800998106e+02
1.350000000000000000e+01  1.072129483259525587e+05  3.006515459659545400e+02
1.362500000000000000e+01  1.073604887628949073e+05  3.177876101125435753e+02
1.375000000000000000e+01  1.068902096748607582e+05  3.010705158530063841e+02
1.387500000000000000e+01  1.072861293378364935e+05  3.165540164355230104e+02
1.400000000000000000e+01  1.069035812944562931e+05  3.075983169122592926e+02
1.412500000000000000e+01  1.078683261564098502e+05  3.142579502455294573e+02
1.425000000000000000e+01  1.077147979688921914e+05  3.073478765002101341e+02
1.437500000000000000e+01  1.089109417201422038e+05  3.212362754243596896e+02
1.450000000000000000e+01  1.069714926734647161e+05  2.835445844784586598e+02
1.462500000000000000e+01  1.077047621802970680e+05  3.217017391865613263e+02
1.475000000000000000e+01  1.089604814894129522e+05  3.131177597720554218e+02
1.487500000000000000e+01  1.079515626270521898e+05  3.126575685514197858e+02
1.500000000000000000e+01  1.081955460619370133e+05  3.159657392455551417e+02
1.512500000000000000e+01  1.072151025043078407e+05  3.104269421433768343e+02
1.525000000000000000e+01  1.073778188217749994e+05  3.158171141816911813e+02
1.537500000000000000e+01  1.070846393452046905e+05  3.119999562449982022e+02
1.550000000000000000e+01  1.065738207401111285e+05  3.199304450561435260e+02
1.562500000000000000e+01  1.056741995540179632e+05  3.024439684010665701e+02
1.575000000000000000e+01  1.053885151017302123e+05  3.173402920535424414e+02
1.587500000000000000e+01  1.050764228507688968e+05  3.056110030353571005e+02
1.600000000000000000e+01  1.045851709309664147e+05  3.056099976057067238e+02
1.612500000000000000e+01  1.048694153923931008e+05  3.034560268141872825e+02
1.625000000000000000e+01  1.049683804758574988e+05  3.111694172865375663e+02
1.637500000000000000e+01  1.039771269795289700e+05  3.045596458511458877e+02
1.650000000000000000e+01  1.035533303292541677e+05  3.104088166723556128e+02
1.662500000000000000e+01  1.026453088451390649e+05  3.022498381287044822e+02
1.675000000000000000e+01  1.027870760694638739e+05  3.079957002179170900e+02
1.687500000000000000e+01  1.016136763148434111e+05  3.014552560858950869e+02
1.700000000000000000e+01  1.014990695116082497e+05  3.071403129604049127e+02
1.712500000000000000e+01  1.008853271601423185e+05  3.060040812676645601e+02
1.725000000000000000e+01  1.008942968421141268e+05  3.046539804532074527e+02
1.737500000000000000e+01  9.964602418313099770e+04  2.974084197442503523e+02
1.750000000000000000e+01  9.991904371659757453e+04  2.947862036900168619e+02
1.762500000000000000e+01  9.885726860191236483e+04  3.035732559465203053e+02
1.775000000000000000e+01  9.828355028133250016e+04  2.928817810010274911e+02
1.787500000000000000e+01  9.881548411743869656e+04  3.046423666939910504e+02
1.800000000000000000e+01  9.804970304488601687e+04  2.954711981494667725e+02
1.812500000000000000e+01  9.775716103944533097e+04  3.036214882816374256e+02
1.825000000000000000e+01  9.800465158824276295e+04  2.975320957520189040e+02
1.837500000000000000e+01  9.712238391721564403e+04  3.039470661568181526e+02
1.850000000000000000e+01  9.643616645417053951e+04  2.982910599601145236e+02
1.862500000000000000e+01  9.667936740254986216e+04  3.009774329381380653e+02
1.875000000000000000e+01  9.603509245469122834e+04  2.848126507610227804e+02
1.887500000000000000e+01  9.548316431239192025e+04  2.994203222047404438e+02
1.900000000000000000e+01  9.528658021034121339e+04  2.891417661825894925e+02
1.912500000000000000e+01  9.577335088402734254e+04  3.004470255712838025e+02
1.925000000000000000e+01  9.464855070478717971e+04  2.951662658064607285e+02
1.937500000000000000e+01  9.436527668625231308e+04  2.971534151780895172e+02
1.950000000000000000e+01  9.441101246963070298e+04  2.924750309329006654e+02
1.962500000000000000e+01  9.349847502438726951e+04  2.972913212850604623e+02
1.975000000000000000e+01  9.398097772036373499e+04  2.981120546625650150e+02
1.987500000000000000e+01  9.345049885772376729e+04  2.962639531065538563e+02
2.000000000000000000e+01  9.280027232159666892e+04  2.965712666162227151e+02
2.012500000000000000e+01  9.273568841657481971e+04  2.851435781515435224e+02
2.025000000000000000e+01  9.162713364880939480e+04  2.927668369779373165e+02
2.037500000000000000e+01  9.191495293379822397e+04  2.844628260417660499e+02
2.050000000000000000e+01  9.174987279769709858e+04  2.947841279704630892e+02
2.062500000000000000e+01  9.140276420088001760e+04  2.936855737008065717e+02
2.075000000000000000e+01  9.083945340073203261e+04  2.910175942517000180e+02
2.087500000000000000e+01  9.082451868528629711e+04  2.895615329897237871e+02
2.100000000000000000e+01  9.063875446161994478e+04  2.944384537435535094e+02
2.112500000000000000e+01  8.980819844863605977e+04  2.898607529489734702e+02
2.125000000000000000e+01  8.937415120307652978e+04  2.924568126967723174e+02
2.137500000000000000e+01  8.954376795274199685e+04  2.920238438765778142e+02
2.150000000000000000e+01  8.866299223600883852e+04  2.848295064770132967e+02
2.162500000000000000e+01  8.896435270126504474e+04  2.792792265992395073e+02
2.175000000000000000e+01  8.808961085981459473e+04  2.916858540978107612e+02
2.187500000000000000e+01  8.791088251260206744e+04  2.819525323723509587e+02
2.200000000000000000e+01  8.827850902864857926e+04  2.935726098569702458e+02
2.212500000000000000e+01  8.782351890918600839e+04  2.861733488379370556e+02
2.225000000000000000e+01  8.777278315558796749e+04  2.905857887932872927e+02
2.237500000000000000e+01  8.792128926702817262e+04  2.873843296786054111e+02
2.250000000000000000e+01  8.648610719125469041e+04  2.918698259064660760e+02
2.262500000000000000e+01  8.603303957296795852e+04  2.840147733548737961e+02
2.275000000000000000e+01  8.685551537299290067e+04  2.922010929170538702e+02
2.287500000000000000e+01  8.600666150289379584e+04  2.788663865590388582e+02
2.300000000000000000e+01  8.613596646109277208e+04  2.856808245465295499e+02
2.312500000000000000e+01  8.508983315843221499e+04  2.785954966274014168e+02
2.325000000000000000e+01  8.560448259857381345e+04  2.816592266264494810e+02
2.337500000000000000e+01  8.542270372119809326e+04  2.840205882003132842e+02
2.350000000000000000e+01  8.407993010903488903e+04  2.829691192826175552e+02
2.362500000000000000e+01  8.502096779793428141e+04  2.862415480918582489e+02
2.375000000000000000e+01  8.374808816511093755e+04  2.809136732190710859e+02
2.387500000000000000e+01  8.432941192282694101e+04  2.920526480078441409e+02
2.400000000000000000e+01  8.356800064189547265e+04  2.780030096399374315e+02
2.412500000000000000e+01  8.423775438371200289e+04  2.877490086806840281e+02
2.425000000000000000e+01  8.285210476628244214e+04  2.810209453558778705e+02
2.437500000000000000e+01  8.342684367102060060e+04  2.759092134933685543e+02
2.450000000000000000e+01  8.358055891758363578e+04  2.782758528862733556e+02
2.462500000000000000e+01  8.308536366439714038e+04  2.834011345884837283e+02
2.475000000000000000e+01  8.215024361716389831e+04  2.829069109868973442e+02
2.487500000000000000e+01  8.238517270111061225e+04  2.793295535636980844e+02
2.500000000000000000e+01  8.188983308277245669e+04  2.806339505185687244e+02
2.512500000000000000e+01  8.166005056948773563e+04  2.818076251168023418e+02
2.525000000000000000e+01  8.198579556403862080e+04  2.822301552369401634e+02
2.537500000000000000e+01  8.122126964679121738e+04  2.776166926106653250e+02
2.550000000000000000e+01  8.135121036719781114e+04  2.824575617904116598e+02
2.562500000000000000e+01  8.101161827565576823e+04  2.841673401006564177e+02
2.575000000000000000e+01  8.119936123989796033e+04  2.738116829119034037e+02
2.587500000000000000e+01  7.974503287573058333e+04  2.688662843715995336e+02
2.600000000000000000e+01  8.009638696374899882e+04  2.807894383200221000e+02
2.612500000000000000e+01  8.018934002421387413e+04  2.758482905139122749e+02
2.625000000000000000e+01  8.036340917683021689e+04  2.822201975896056183e+02
2.637500000000000000e+01  8.063262013017295976e+04  2.799338786881336887e+02
2.650000000000000000e+01  7.905672685031442961e+04  2.742662006228393921e+02
2.662500000000000000e+01  7.970885356800616137e+04  2.829652452519383701e+02
2.675000000000000000e+01  7.955836853381214314e+04  2.798697774427920422e+02
2.687500000000000000e+01  7.966432873935012321e+04  2.802286525690552139e+02
2.700000000000000000e+01  7.877108434997728909e+04  2.761722495989005211e+02
2.712500000000000000e+01  7.927962008412809519e+04  2.721542773908901154e+02
2.725000000000000000e+01  7.848600375233817613e+04  2.727758378381323610e+02
2.737500000000000000e+01  7.871605774425918935e+04  2.698462691969936031e+02
2.750000000000000000e+01  7.857222014559393574e+04  2.847716913169033432e+02
2.762500000000000000e+01  7.875558347685958142e+04  2.744463520176105931e+02
2.775000000000000000e+01  7.822093279269279446e+04  2.758725383280419692e+02
2.787500000000000000e+01  7.844826354777063534e+04  2.796929503177398715e+02
2.800000000000000000e+01  7.955500000000000000e+04  2.820549591834896432e+02
2.812500000000000000e+01  8.002606729054883181e+04  2.830410345609398064e+02
2.825000000000000000e+01  8.323942451679463557e+04  2.887074662722167204e+02
2.837500000000000000e+01  8.638172976277048292e+04  2.905594937155186699e+02
2.850000000000000000e+01  9.293283645487313333e+04  2.977897739843787690e+02
2.862500000000000000e+01  9.731257526043607504e+04  3.057650369723314157e+02
2.875000000000000000e+01  1.020336808452974656e+05  3.138398696583489595e+02
2.887500000000000000e+01  1.035920423565498349e+05  3.204635506752152878e+02
2.900000000000000000e+01  1.040726291728945944e+05  3.231134465512318457e+02
2.912500000000000000e+01  9.853436785350491118e+04  2.826503706837739287e+02
2.925000000000000000e+01  9.486750319838832365e+04  3.154984480635024511e+02
2.937500000000000000e+01  9.094068474309155135e+04  3.117736266326568852e+02
2.950000000000000000e+01  8.603713758339626656e+04  2.948206691278671201e+02
2.962500000000000000e+01  8.265979282073033391e+04  2.922483267328176453e+02
2.975000000000000000e+01  8.023228152777810465e+04  2.826131710768896710e+02
2.987500000000000000e+01  7.852453805934749835e+04  2.766372273461582267e+02
3.000000000000000000e+01  7.779754726135623059e+04  2.787261169939819752e+02
3.012500000000000000e+01  7.718161118453629024e+04  2.729242631134741828e+02
3.025000000000000000e+01  7.676499975763040129e+04  2.762242484004845551e+02
3.037500000000000000e+01  7.626557907435516245e+04  2.753969988876170873e+02
3.050000000000000000e+01  7.608893390017600905e+04  2.777689952537433555e+02
3.062500000000000000e+01  7.633725989734128234e+04  2.764536566713987895e+02
3.075000000000000000e+01  7.555057906894847110e+04  2.761479954653147502e+02
3.087500000000000000e+01  7.516796809091884643e+04  2.746559442843046668e+02
3.100000000000000000e+01  7.508681564851354051e+04  2.782214714277211556e+02
3.112500000000000000e+01  7.480795920888423279e+04  2.731673294901299300e+02
3.125000000000000000e+01  7.494247839171011583e+04  2.699267526796928109e+02
3.137500000000000000e+01  7.518641806152617210e+04  2.663991741804952085e+02
3.150000000000000000e+01  7.460443187767367635e+04  2.723406234932485859e+02
3.162500000000000000e+01  7.382175395617165486e+04  2.726073710953317004e+02
3.175000000000000000e+01  7.431339485911233351e+04  2.681361640172727334e+02
3.187500000000000000e+01  7.409483929244108731e+04  2.749860591952140112e+02
3.200000000000000000e+01  7.418895789534722280e+04  2.741878052417105209e+02
3.212500000000000000e+01  7.418450589280195709e+04  2.723564068533140130e+02
3.225000000000000000e+01  7.410621474884948111e+04  2.777637960380577056e+02
3.237500000000000000e+01  7.486513226415781537e+04  2.752766669629065746e+02
3.250000000000000000e+01  7.572069986902618257e+04  2.768197428351590474e+02
3.262500000000000000e+01  7.599837577876962314e+04  2.714037315036735549e+02
3.275000000000000000e+01  7.754126666294498136e+04  2.775319927794636783e+02
3.287500000000000000e+01  7.779413699214717781e+04  2.770615846392894355e+02
3.300000000000000000e+01  7.794971924713657063e+04  2.800849841683069599e+02
3.312500000000000000e+01  7.759135289999886299e+04  2.797724712432574847e+02
3.325000000000000000e+01  7.651466846244897170e+04  2.779999914033007258e+02
3.337500000000000000e+01  7.560490888038292178e+04  2.766053820312229163e+02
3.350000000000000000e+01  7.384177279119781451e+04  2.772677644526381755e+02
3.362500000000000000e+01  7.277342974306654651e+04  2.722295466964494040e+02
3.375000000000000000e+01  7.206295046577492030e+04  2.737109425581426763e+02
3.387500000000000000e+01  7.168577584456143086e+04  2.706550014010828136e+02
3.400000000000000000e+01  7.140612410119170090e+04  2.676790850382651001e+02
3.412500000000000000e+01  7.137314733650920971e+04  2.600118970459403727e+02
3.425000000000000000e+01  7.092112846028187778e+04  2.707228827847243338e+02
3.437500000000000000e+01  7.089143321710229793e+04  2.676158485026962808e+02
3.450000000000000000e+01  7.019612746493208397e+04  2.653107380765262064e+02
3.462500000000000000e+01  7.066076036212593317e+04  2.708044364741454615e+02
3.475000000000000000e+01  6.985934266863169614e+04  2.675209394528092730e+02
3.487500000000000000e+01  7.053660868763350300e+04  2.678903733495104120e+02
3.500000000000000000e+01  7.073620549951007706e+04  2.743775171431713602e+02
3.512500000000000000e+01  7.026170126875756250e+04  2.712968776326413263e+02
3.525000000000000000e+01  6.974292133979829669e+04  2.689971324530362722e+02
3.537500000000000000e+01  6.893299847847448837e+04  2.649212520013409744e+02
3.550000000000000000e+01  6.969986750499943446e+04  2.601592675794869933e+02
3.562500000000000000e+01  6.884421936991778784e+04  2.578507522970837726e+02
3.575000000000000000e+01  6.926685935277305543e+04  2.701535300400059896e+02
3.587500000000000000e+01  6.924947611877990130e+04  2.652535830822307048e+02
3.600000000000000000e+01  6.856352332684406429e+04  2.664978169074591960e+02
3.612500000000000000e+01  6.810274752017435094e+04  2.645210750166111211e+02
3.625000000000000000e+01  6.782122812153626001e+04  2.689054091425020374e+02
3.637500000000000000e+01  6.874188542779235286e+04  2.674660051650910759e+02
3.650000000000000000e+01  6.770919868843433505e+04  2.682294028536015276e+02
3.662500000000000000e+01  6.832282108577013423e+04  2.701646599638171438e+02
3.675000000000000000e+01  6.784775411625071138e+04  2.678071000138421027e+02
3.687500000000000000e+01  6.780168574867330608e+04  2.541511088918013002e+02
3.700000000000000000e+01  6.768068633666807727e+04  2.614225839874019357e+02
3.712500000000000000e+01  6.772565937647274404e+04  2.631040457249160909e+02
3.725000000000000000e+01  6.776328761137045512e+04  2.650848842088727224e+02
3.737500000000000000e+01  6.728157758905188530e+04  2.659579428137528794e+02
3.750000000000000000e+01  6.730081567948164593e+04  2.634996207657406444e+02
3.762500000000000000e+01  6.653212460717908107e+04  2.664441552881958728e+02
3.775000000000000000e+01  6.663651189892053662e+04  2.642122635382018530e+02
3.787500000000000000e+01  6.706509715347964084e+04  2.715609012827877109e+02
3.800000000000000000e+01  6.641936146889843803e+04  2.628002899361216009e+02
3.812500000000000000e+01  6.611882602772241808e+04  2.657518529651149493e+02
3.825000000000000000e+01  6.567915250854725309e+04  2.476150115802263088e+02
3.837500000000000000e+01  6.604710491931544675e+04  2.608764848965580541e+02
3.850000000000000000e+01  6.559668101795123948e+04  2.616384615000452527e+02
3.862500000000000000e+01  6.581380077195695776e+04  2.604287425851242119e+02
3.875000000000000000e+01  6.539292108156050381e+04  2.647269735041192007e+02
3.887500000000000000e+01  6.573623198295672773e+04  2.617561137129746385e+02
3.900000000000000000e+01  6.508718557520010654e+04  2.625636185793327400e+02
3.912500000000000000e+01  6.547744736369560269e+04  2.639490184840578877e+02
3.925000000000000000e+01  6.539925379491702915e+04  2.619934492059108493e+02
3.937500000000000000e+01  6.459808981785120704e+04  2.665817106997894257e+02
3.950000000000000000e+01  6.474517158453683078e+04  2.639934675147737835e+02
3.962500000000000000e+01  6.446130956756877276e+04  2.496307445671163237e+02
3.975000000000000000e+01  6.404398852125004487e+04  2.540928013962982561e+02
3.987500000000000000e+01  6.370050724328452634e+04  2.564506640891149800e+02
4.000000000000000000e+01  6.430079353607050871e+04  2.588841295194325767e+02
4.012500000000000000e+01  6.439604802344469499e+04  2.597734357040303053e+02
4.025000000000000000e+01  6.441928123624979344e+04  2.622116915231799794e+02
4.037500000000000000e+01  6.419017743668780167e+04  2.609486171373164893e+02
4.050000000000000000e+01  6.402802942444592190e+04  2.585856841725908453e+02
4.062500000000000000e+01  6.379789762246612372e+04  2.648972168565696279e+02
4.075000000000000000e+01  6.355520357727379451e+04  2.581988013773001853e+02
4.087500000000000000e+01  6.362416684705700027e+04  2.631840546076878695e+02
4.100000000000000000e+01  6.339578559569665958e+04  2.510906334550328722e+02
4.112500000000000000e+01  6.333830574170568434e+04  2.558502252576935803e+02
4.125000000000000000e+01  6.316076030342691956e+04  2.543890542725531532e+02
4.137500000000000000e+01  6.289356663687187392e+04  2.561733878393954456e+02
4.150000000000000000e+01  6.255912348113461485e+04  2.577419356938968349e+02
4.162500000000000000e+01  6.221198072586591297e+04  2.572830619698086707e+02
4.175000000000000000e+01  6.218480226852517080e+04  2.587375058167804696e+02
4.187500000000000000e+01  6.174799135971893702e+04  2.561914727931847438e+02
4.200000000000000000e+01  6.225503176042529958e+04  2.595492170473002602e+02
4.212500000000000000e+01  6.152720709875012835e+04  2.561966224951775075e+02
4.225000000000000000e+01  6.119040028492102283e+04  2.558342629214959913e+02
4.237500000000000000e+01  6.096082349959506973e+04  2.455026070762486370e+02
4.250000000000000000e+01  6.104417481465232413e+04  2.490458248653315536e+02
4.262500000000000000e+01  6.042559701378330647e+04  2.486376402416472047e+02
4.275000000000000000e+01  6.117712198561790865e+04  2.515384182307144840e+02
4.287500000000000000e+01  6.030770760934352438e+04  2.484029232952273958e+02
4.300000000000000000e+01  5.955236184116561344e+04  2.495928916934983874e+02
4.312500000000000000e+01  5.949671678275073646e+04  2.487443535796248568e+02
4.325000000000000000e+01  5.885696246848598093e+04  2.476547466750725448e+02
4.337500000000000000e+01  5.923074354712505738e+04  2.494595044599959124e+02
4.350000000000000000e+01  5.851751123617651319e+04  2.446397931204302836e+02
4.362500000000000000e+01  5.810280244504578150e+04  2.487436137053332459e+02
4.375000000000000000e+01  5.838357155819417676e+04  2.301081696803553029e+02
4.387500000000000000e+01  5.750319935443833674e+04  2.243037958040199840e+02
4.400000000000000000e+01  5.805301604615798715e+04  2.552823106454220010e+02
4.412500000000000000e+01  5.837155960011858406e+04  2.419662141912772313e+02
4.425000000000000000e+01  5.844865695067757770e+04  2.486456610045248965e+02
4.437500000000000000e+01  5.822185353191302420e+04  2.436978253847625524e+02
4.450000000000000000e+01  5.811054964923564694e+04  2.410499944194709201e+02
4.462500000000000000e+01  5.801763353105686838e+04  2.422347868947407221e+02
4.475000000000000000e+01  5.770254295591899427e+04  2.423898974249858043e+02
4.487500000000000000e+01  5.751569751616141002e+04  2.412052644786359963e+02
4.500000000000000000e+01  5.706127357631597988e+04  2.402968706607674392e+02
4.512500000000000000e+01  5.689152611640079704e+04  2.322567473241784342e+02
4.525000000000000000e+01  5.701661377836610336e+04  2.356440703270218364e+02
4.537500000000000000e+01  5.751799046454688505e+04  2.395917495794487309e+02
4.550000000000000000e+01  5.777613073842159065e+04  2.399230089728329745e+02
4.562500000000000000e+01  5.856121923282474017e+04  2.470937520372351912e+02
4.575000000000000000e+01  5.768977576271057478e+04  2.423854577566468720e+02
4.587500000000000000e+01  5.799016276341994671e+04  2.451845480261240198e+02
4.600000000000000000e+01  5.846003158356916538e+04  2.475897805019693863e+02
4.612500000000000000e+01  5.866725120187010907e+04  2.513444033518080687e+02
4.625000000000000000e+01  5.889308303805506876e+04  2.461131539808348521e+02
4.637500000000000000e+01  5.930944535927842662e+04  2.553194310578630279e+02
4.650000000000000000e+01  5.986094413407964021e+04  2.502518090306055853e+02
4.662500000000000000e+01  6.131709352776443848e+04  2.466814660280542739e+02
4.675000000000000000e+01  6.288291949652971380e+04  2.594837055143266298e+02
4.687500000000000000e+01  6.519173136555740348e+04  2.606689323629016712e+02
4.700000000000000000e+01  6.668849227296536264e+04  2.701156787930042924e+02
4.712500000000000000e+01  7.015654381259804359e+04  2.749820706581573972e+02
4.725000000000000000e+01  7.130183704856054101e+04  2.800525336306916984e+02
4.737500000000000000e+01  7.318346097541876952e+04  2.808647563262888980e+02
4.750000000000000000e+01  7.295535502756116330e+04  2.887900180138133805e+02
4.762500000000000000e+01  7.245518234843385289e+04  2.831490562307450318e+02
4.775000000000000000e+01  7.114910157616696961e+04  2.861041424762801739e+02
4.787500000000000000e+01  6.940325978353313985e+04  2.735912597490694793e+02
4.800000000000000000e+01  6.654486352824718051e+04  2.594622659014089550e+02
4.812500000000000000e+01  6.444724797700849740e+04  2.609285862093718720e+02
4.825000000000000000e+01  6.264494894241748261e+04  2.602401667623086041e+02
4.837500000000000000e+01  6.084229843830605387e+04  2.594182825331260460e+02
4.850000000000000000e+01  6.023398507665492798e+04  2.549885069824093193e+02
4.862500000000000000e+01  5.841365784409479966e+04  2.543163937899606708e+02
4.875000000000000000e+01  5.893640920000484766e+04  2.575583054147203370e+02
4.887500000000000000e+01  5.887540619773216167e+04  2.594385559938249912e+02
4.900000000000000000e+01  5.848162059779128322e+04  2.571024331797847822e+02
4.912500000000000000e+01  5.842442668121620954e+04  2.565066691763052518e+02
4.925000000000000000e+01  5.843563162091770209e+04  2.579216985028633644e+02
4.937500000000000000e+01  5.785498998923390900e+04  2.406804305889657485e+02
4.950000000000000000e+01  5.810132390982772631e+04  2.490249867899906064e+02
4.962500000000000000e+01  5.734587651060803182e+04  2.508015707964428600e+02
4.975000000000000000e+01  5.738263344631230575e+04  2.476958462362801470e+02
4.987500000000000000e+01  5.778908332680331660e+04  2.567212286271285393e+02
5.000000000000000000e+01  5.705598600848406932e+04  2.532896387033263181e+02
5.012500000000000000e+01  5.758849261244122317e+04  2.542544500204748488e+02
5.025000000000000000e+01  5.735212186370688869e+04  2.560566718149358394e+02
5.037500000000000000e+01  5.744042293295184209e+04  2.552050844774472580e+02
5.050000000000000000e+01  5.751755539758085069e+04  2.557219925545281569e+02
5.062500000000000000e+01  5.697075503577333438e+04  2.541640918246259560e+02
5.075000000000000000e+01  5.731708791504894180e+04  2.420231357010183331e+02
5.087500000000000000e+01  5.713686734279856319e+04  2.485621638824772219e+02
5.100000000000000000e+01  5.700796314732142491e+04  2.451643618255849901e+02
5.112500000000000000e+01  5.701665331262155087e+04  2.542980089817395992e+02
5.125000000000000000e+01  5.702311973099132592e+04  2.518393272516625530e+02
5.137500000000000000e+01  5.686632349574700493e+04  2.583285513242748834e+02
5.150000000000000000e+01  5.678871141305090714e+04  2.519492446022742342e+02
5.162500000000000000e+01  5.700296394377183606e+04  2.563724677316044449e+02
5.175000000000000000e+01  5.639899830629928329e+04  2.512510181154131885e+02
5.187500000000000000e+01  5.577608915257232002e+04  2.528884273942831840e+02
5.200000000000000000e+01  5.628037970769378444e+04  2.529487201900757043e+02
5.212500000000000000e+01  5.639552726921746216e+04  2.409581252794286286e+02
5.225000000000000000e+01  5.583818251070516999e+04  2.462293967871384552e+02
5.237500000000000000e+01  5.565127734584458085e+04  2.474587972561327263e+02
5.250000000000000000e+01  5.645835459103043104e+04  2.523128802838858746e+02
5.262500000000000000e+01  5.541676084367868316e+04  2.477272650676726187e+02
5.275000000000000000e+01  5.547765156312417093e+04  2.529510587820152239e+02
5.287500000000000000e+01  5.538845353342571616e+04  2.455870408419510795e+02
5.300000000000000000e+01  5.553623250758490030e+04  2.541258253593393306e+02
5.312500000000000000e+01  5.590541307168313506e+04  2.497021810930352785e+02
5.325000000000000000e+01  5.596698726493308641e+04  2.564650052682496835e+02
5.337500000000000000e+01  5.606831310888633743e+04  2.510515889898689750e+02
5.350000000000000000e+01  5.731361022718124877e+04  2.458928536741601079e+02
5.362500000000000000e+01  5.765037213212103234e+04  2.465109651755969935e+02
5.375000000000000000e+01  5.852849488931104133e+04  2.540829647792108688e+02
5.387500000000000000e+01  5.899874754739207856e+04  2.570440429940738909e+02
5.400000000000000000e+01  5.882453945405585546e+04  2.514374373937082794e+02
5.412500000000000000e+01  5.936825662325501617e+04  2.593044262052610520e+02
5.425000000000000000e+01  5.834028772006802319e+04  2.540933053880342811e+02
5.437500000000000000e+01  5.781122419862707466e+04  2.577213992550991293e+02
5.450000000000000000e+01  5.700655088776745106e+04  2.496137263228972927e+02
5.462500000000000000e+01  5.742074166384908312e+04  2.593052319260750096e+02
5.475000000000000000e+01  5.585304483202652045e+04  2.491330191614766250e+02
5.487500000000000000e+01  5.508947948278595868e+04  2.389644941409894443e+02
5.500000000000000000e+01  5.454373770984756266e+04  2.412990953513346142e+02
5.512500000000000000e+01  5.408888815893767605e+04  2.431778033156591334e+02
5.525000000000000000e+01  5.347086759237542719e+04  2.415567572245574013e+02
5.537500000000000000e+01  5.305223274056788068e+04  2.397438542320518593e+02
5.550000000000000000e+01  5.275539332932240359e+04  2.430659595200985450e+02
5.562500000000000000e+01  5.250492862045348011e+04  2.376786441780969312e+02
5.575000000000000000e+01  5.192056696981306595e+04  2.430817007073395644e+02
5.587500000000000000e+01  5.143193023399294907e+04  2.371217937040060804e+02
5.600000000000000000e+01  5.127172304876674025e+04  2.416569475372081399e+02
5.612500000000000000e+01  5.078130083403046592e+04  2.335297019567745167e+02
5.625000000000000000e+01  5.027964604632568808e+04  2.266643298346159554e+02
5.637500000000000000e+01  5.047034446301799471e+04  2.243791346166200924e+02
5.650000000000000000e+01  5.041104765713585221e+04  2.308768414274137513e+02
5.662500000000000000e+01  5.079078833101115742e+04  2.334104930472673516e+02
5.675000000000000000e+01  5.005153675125575683e+04  2.328658637073224611e+02
5.687500000000000000e+01  5.043166525468515465e+04  2.347436921966617547e+02
5.700000000000000000e+01  5.119238449647121888e+04  2.356045966596107917e+02
5.712500000000000000e+01  5.171537876956492255e+04  2.455077508748875914e+02
5.725000000000000000e+01  5.165561266898338363e+04  2.409844039154975803e+02
5.737500000000000000e+01  5.161383412536836113e+04  2.436078725526697042e+02
5.750000000000000000e+01  5.191954354938206234e+04  2.416876303968359423e+02
5.762500000000000000e+01  5.231395512311844504e+04  2.414373092196731534e+02
5.775000000000000000e+01  5.257401846081253461e+04  2.336184688676979135e+02
5.787500000000000000e+01  5.265454306617064867e+04  2.425678324565788841e+02
5.800000000000000000e+01  5.212804540371816984e+04  2.391547029761960630e+02
5.812500000000000000e+01  5.260765695718334609e+04  2.464768684112037818e+02
5.825000000000000000e+01  5.213905057251665130e+04  2.455132004346398560e+02
5.837500000000000000e+01  5.230654178322375083e+04  2.488109209463542300e+02
5.850000000000000000e+01  5.329766831462350819e+04  2.417581586607456359e+02
5.862500000000000000e+01  5.078713624421494751e+04  3.079762156583041133e+02
5.875000000000000000e+01  5.326310533700963424e+04  2.402996293575053812e+02
5.887500000000000000e+01  5.291145840815023985e+04  2.354808792057358460e+02
5.900000000000000000e+01  5.236328844377028145e+04  2.368167695437712439e+02
5.912500000000000000e+01  5.258493477979339514e+04  2.332780742072294515e+02
5.925000000000000000e+01  5.226265969920703355e+04  2.399642985681908556e+02
5.937500000000000000e+01  5.228688002382169361e+04  2.435031512108998015e+02
5.950000000000000000e+01  5.258492549641987716e+04  2.433418316001835535e+02
5.962500000000000000e+01  5.303099924870712857e+04  2.499377688074072807e+02
5.975000000000000000e+01  5.280245128519005084e+04  2.482520173950076412e+02
5.987500000000000000e+01  5.364562148581953807e+04  2.529047457690309386e+02
6.000000000000000000e+01  5.351237736825356114e+04  2.479658086281501710e+02
6.012500000000000000e+01  5.430345222798884060e+04  2.577272914761870197e+02
6.025000000000000000e+01  5.383373804764488159e+04  2.492596542181997279e+02
6.037500000000000000e+01  5.453400839427566098e+04  2.578649089541160606e+02
6.050000000000000000e+01  5.457578738147478725e+04  2.295248907642665301e+02
6.062500000000000000e+01  5.453180319454212440e+04  2.469601709832977292e+02
6.075000000000000000e+01  5.479455251713558391e+04  2.518178810098141298e+02
6.087500000000000000e+01  5.431166764864568540e+04  2.480114105156323490e+02
6.100000000000000000e+01  5.425383506664587185e+04  2.520845142397501206e+02
6.112500000000000000e+01  5.399690014322040224e+04  2.492973125449593397e+02
6.125000000000000000e+01  5.332298355154643650e+04  2.564998604705656362e+02
6.137500000000000000e+01  5.224693492745343246e+04  2.450586216961515618e+02
6.150000000000000000e+01  5.287686364012664853e+04  2.524048757553851488e+02
6.162500000000000000e+01  5.207071732961743692e+04  2.461704184298930613e+02
6.175000000000000000e+01  5.264265741460688150e+04  2.508016237426940620e+02
6.187500000000000000e+01  5.263387139271726483e+04  2.301254510769942101e+02
6.200000000000000000e+01  5.247597664484219422e+04  2.428298601959491805e+02
6.212500000000000000e+01  5.281967249740137777e+04  2.468963881644575622e+02
6.225000000000000000e+01  5.437240689152143023e+04  2.496117506725798023e+02
6.237500000000000000e+01  5.627927497135091835e+04  2.605019526389875750e+02
6.250000000000000000e+01  5.854610733508772682e+04  2.590408934009032009e+02
6.262500000000000000e+01  6.255787561947154609e+04  2.716264430950406563e+02
6.275000000000000000e+01  6.723655922873120289e+04  2.787164773824395638e+02
6.287500000000000000e+01  7.241279537025647005e+04  2.973010476085451614e+02
6.300000000000000000e+01  7.890935400426898559e+04  3.039294380798265820e+02
6.312500000000000000e+01  8.446108792943802837e+04  3.178937606981657495e+02
6.325000000000000000e+01  9.162084312757503358e+04  3.067331684185130598e+02
6.337500000000000000e+01  9.566119469637011935e+04  3.276952390066701355e+02
6.350000000000000000e+01  9.823957054805137159e+04  3.343997628836658578e+02
6.362500000000000000e+01  9.993965192472585477e+04  3.413913313304195754e+02
6.375000000000000000e+01  9.951501027364659240e+04  3.417460235218641174e+02
6.387500000000000000e+01  9.770196783814276569e+04  3.366932198915633876e+02
6.400000000000000000e+01  9.383041188248878461e+04  3.354489420012145615e+02
6.412500000000000000e+01  8.885210164459062798e+04  3.223513491778698494e+02
6.425000000000000000e+01  8.340921996843638772e+04  3.188765075454018074e+02
6.437500000000000000e+01  7.588273058932184358e+04  2.930621643911958927e+02
6.450000000000000000e+01  6.979940915129259520e+04  2.970887054487693035e+02
6.462500000000000000e+01  6.303991627439341391e+04  2.572714944174441598e+02
6.475000000000000000e+01  5.806835008373510209e+04  2.534986655549919590e+02
6.487500000000000000e+01  5.507562819939372275e+04  2.501422847528002364e+02
6.500000000000000000e+01  5.340042124343477190e+04  2.485892578394115162e+02
6.512500000000000000e+01  5.129901859592694382e+04  2.450798246317748408e+02
6.525000000000000000e+01  5.076954850706157595e+04  2.412052372868671171e+02
6.537500000000000000e+01  5.028202901449873752e+04  2.436258051202875095e+02
6.550000000000000000e+01  5.010587383282481460e+04  2.450523909980934434e+02
6.562500000000000000e+01  5.012569760860544193e+04  2.443412346756027489e+02
6.575000000000000000e+01  4.966079078482848126e+04  2.420491336270819716e+02
6.587500000000000000e+01  4.937566805020011088e+04  2.522715323957762052e+02
6.600000000000000000e+01  4.955664948659454967e+04  2.290634573183339171e+02
6.612500000000000000e+01  4.907883159059556056e+04  2.314575780423081426e+02
6.625000000000000000e+01  4.982004762755290722e+04  2.385045130802479036e+02
6.637500000000000000e+01  4.970153280357172480e+04  2.416142863788457760e+02
6.650000000000000000e+01  4.909475916624127422e+04  2.392561670183367539e+02
6.662500000000000000e+01  4.901563159432151588e+04  2.392430061170942679e+02
6.675000000000000000e+01  4.888553106006379676e+04  2.410260753060302648e+02
6.687500000000000000e+01  4.842571178264776245e+04  2.391808796910797241e+02
6.700000000000000000e+01  4.917353577683526237e+04  2.457693907815543071e+02
6.712500000000000000e+01  4.806959358277964930e+04  2.383746464747821960e+02
6.725000000000000000e+01  4.841217974951720680e+04  2.482839127243568385e+02
6.737500000000000000e+01  4.858218691847482114e+04  2.240571669819285034e+02
6.750000000000000000e+01  4.800063958153141721e+04  2.280682178194119842e+02
6.762500000000000000e+01  4.772822470092662115e+04  2.327237179355218188e+02
6.775000000000000000e+01  4.777105696856023133e+04  2.338910055784392625e+02
6.787500000000000000e+01  4.821885843237658992e+04  2.383773746045467874e+02
6.800000000000000000e+01  4.661227575709961093e+04  2.330089576667356539e+02
6.812500000000000000e+01  4.750400089720224787e+04  2.363704934668509736e+02
6.825000000000000000e+01  4.726049578633256169e+04  2.382643231951742848e+02
6.837500000000000000e+01  4.744940405643080885e+04  2.465478024136116630e+02
6.850000000000000000e+01  4.694228593503881712e+04  2.333704847857781886e+02
6.862500000000000000e+01  4.708760959156059107e+04  2.397317371175981009e+02
6.875000000000000000e+01  4.637830605003020173e+04  2.249995958107558067e+02
6.887500000000000000e+01  4.667571507780171669e+04  2.243921034196698088e+02
6.900000000000000000e+01  4.713393370563426288e+04  2.305451210480549378e+02
6.912500000000000000e+01  4.672212760369869648e+04  2.306344753293959116e+02
6.925000000000000000e+01  4.645649603717747959e+04  2.306364208105488274e+02
6.937500000000000000e+01  4.626100795234613179e+04  2.307461571561280493e+02
6.950000000000000000e+01  4.731063108678913704e+04  2.389639160858122864e+02
6.962500000000000000e+01  4.673434296542895027e+04  2.377760817484618769e+02
6.975000000000000000e+01  4.671648242221012333e+04  2.416750570803947369e+02
6.987500000000000000e+01  4.662439239835964690e+04  2.312648457339310539e+02
7.000000000000000000e+01  4.658814310003490391e+04  2.433041720885938162e+02
7.012500000000000000e+01  4.650800044860221533e+04  2.231607200375518119e+02
7.025000000000000000e+01  4.657826354264273687e+04  2.220910184502078550e+02
7.037500000000000000e+01  4.584596083265962079e+04  2.249920520564901096e+02
7.050000000000000000e+01  4.564630210698802694e+04  2.282628988416253435e+02
7.062500000000000000e+01  4.532855022027450468e+04  2.256884141815699820e+02
7.075000000000000000e+01  4.531542932458770520e+04  2.298795237884607161e+02
7.087500000000000000e+01  4.517923221749278309e+04  2.338759070827295545e+02
7.100000000000000000e+01  4.551630527566296951e+04  2.317229267013127583e+02
7.112500000000000000e+01  4.518741224187465559e+04  2.326560548010039611e+02
7.125000000000000000e+01  4.549433516030288592e+04  2.296697995436411475e+02
7.137500000000000000e+01  4.537737082955454389e+04  2.379564785215299310e+02
7.150000000000000000e+01  4.532917821412935882e+04  2.234890547992430356e+02
7.162500000000000000e+01  4.545004331051735062e+04  2.119925843084141661e+02
7.175000000000000000e+01  4.575891528115209076e+04  2.219006969023754721e+02
7.187500000000000000e+01  4.573284036624546570e+04  2.260100428177909464e+02
7.200000000000000000e+01  4.580541583894221549e+04  2.292880428510454749e+02
7.212500000000000000e+01  4.631748067652898317e+04  2.302045741223581103e+02
7.225000000000000000e+01  4.680087401784789836e+04  2.351001393517830138e+02
7.237500000000000000e+01  4.678973215362291376e+04  2.331949104103304649e+02
7.250000000000000000e+01  4.725317191526709212e+04  2.362186205756481172e+02
7.262500000000000000e+01  4.730480767410919361e+04  2.329353610505078507e+02
7.275000000000000000e+01  4.735348192882704461e+04  2.409885416693425384e+02
7.287500000000000000e+01  4.746647380254568270e+04  2.316650825954993991e+02
7.300000000000000000e+01  4.726933476714955759e+04  2.116362946352275856e+02
7.312500000000000000e+01  4.767984150901345129e+04  1.989736861558932333e+02
7.325000000000000000e+01  4.726789395514837815e+04  2.162888310502519289e+02
7.337500000000000000e+01  4.727204718015455001e+04  3.033939395363403264e+02
7.350000000000000000e+01  4.708335507909426087e+04  2.311732394100897636e+02
7.362500000000000000e+01  4.614771162053480657e+04  2.322325549462747460e+02
7.375000000000000000e+01  4.577107315760107304e+04  2.293346024972134671e+02
7.387500000000000000e+01  4.521044925179022539e+04  2.281291202806380056e+02
7.400000000000000000e+01  4.462875972824518249e+04  2.249821007606968806e+02
7.412500000000000000e+01  4.467491321945576055e+04  2.327228778816091221e+02
7.425000000000000000e+01  4.345508405325025524e+04  2.191572948406140711e+02
7.437500000000000000e+01  4.302144073835749441e+04  2.007937654937086620e+02
7.450000000000000000e+01  4.335357384328839544e+04  2.118618108001497831e+02
7.462500000000000000e+01  4.313550420162427326e+04  2.184307169793606818e+02
7.475000000000000000e+01  4.293734051594270568e+04  2.199688857716637926e+02
7.487500000000000000e+01  4.215601386192961945e+04  2.146685889186706504e+02
7.500000000000000000e+01  4.232969539493092452e+04  2.215546472582137767e+02
7.512500000000000000e+01  4.256712478792962065e+04  2.136598037964051855e+02
7.525000000000000000e+01  4.256420188128089649e+04  2.215083607894823672e+02
7.537500000000000000e+01  4.225946775536380301e+04  2.147586872318601934e+02
7.550000000000000000e+01  4.251189475444732670e+04  2.246917599843538937e+02
7.562500000000000000e+01  4.233358605823597463e+04  2.132302343792071042e+02
7.575000000000000000e+01  4.260397212708625011e+04  2.030557102985239624e+02
7.587500000000000000e+01  4.203013133659259620e+04  2.079196920567829920e+02
7.600000000000000000e+01  4.246755867475311970e+04  2.153301409841372447e+02
7.612500000000000000e+01  4.229116217669659090e+04  2.159540103945818714e+02
7.625000000000000000e+01  4.193212472778362280e+04  2.113287800981386795e+02
7.637500000000000000e+01  4.198962722829632548e+04  2.171783661081817627e+02
7.650000000000000000e+01  4.154779284145390557e+04  2.103503716556568008e+02
7.662500000000000000e+01  4.145088510491773195e+04  2.183319622583142063e+02
7.675000000000000000e+01  4.161259217594573420e+04  2.095481579998993027e+02
7.687500000000000000e+01  4.135795365765727911e+04  2.234683768688083205e+02
7.700000000000000000e+01  4.150710001609333995e+04  2.109325005808752849e+02
7.712500000000000000e+01  4.089680715286282793e+04  2.025960277015905149e+02
7.725000000000000000e+01  4.094481671587237361e+04  1.996524404030048174e+02
7.737500000000000000e+01  4.111462469091068488e+04  2.082267022796764593e+02
7.750000000000000000e+01  4.073977646209656814e+04  2.087764828356387170e+02
7.762500000000000000e+01  4.096750059797848371e+04  2.074922307278391429e+02
7.775000000000000000e+01  4.143597880668739526e+04  2.125732746271264659e+02
7.787500000000000000e+01  4.169565115665467602e+04  2.122857811397423404e+02
7.800000000000000000e+01  4.168245532627182547e+04  2.164570416561864761e+02
7.812500000000000000e+01  4.128730009978760791e+04  2.082006678814737199e+02
7.825000000000000000e+01  4.193222618796591996e+04  2.247609514398679096e+02
7.837500000000000000e+01  4.162959022757095954e+04  2.134963076455352393e+02
7.850000000000000000e+01  4.263537165357283084e+04  2.033139270965238552e+02
7.862500000000000000e+01  4.287726888828248048e+04  2.040179274170698989e+02
7.875000000000000000e+01  4.249520892730860942e+04  2.100431322580340918e+02
7.887500000000000000e+01  4.275988850208591612e+04  2.127410294938664492e+02
7.900000000000000000e+01  4.296215111675910885e+04  2.120456842154037247e+02
7.912500000000000000e+01  4.289663333311004681e+04  2.138665161078744177e+02
7.925000000000000000e+01  4.275788508204980462e+04  2.118336959012970908e+02
7.937500000000000000e+01  4.318323163703384489e+04  2.169053329658148641e+02
7.950000000000000000e+01  4.307295286695830873e+04  2.164196760296077855e+02
7.962500000000000000e+01  4.339024125714411639e+04  2.263164531345161379e+02
7.975000000000000000e+01  4.229289337530751072e+04  2.170522320847582023e+02
7.987500000000000000e+01  4.194747472895192914e+04  2.021406603748594364e+02
8.000000000000000000e+01  4.181883098895844887e+04  1.979424693203029335e+02
8.012500000000000000e+01  4.127250544235895359e+04  2.053358479719350953e+02
8.025000000000000000e+01  4.090577582399746461e+04  2.037484888059959189e+02
8.037500000000000000e+01  4.038706534176735295e+04  2.012922189395525265e+02
8.050000000000000000e+01  4.088262664130792109e+04  2.138635107073374115e+02
8.062500000000000000e+01  4.087882067656933214e+04  2.044273255227623451e+02
8.075000000000000000e+01  4.096419442323179101e+04  2.162308669380548736e+02
8.087500000000000000e+01  4.157854378615658061e+04  2.079889360690758338e+02
8.100000000000000000e+01  4.214295818043005420e+04  2.251317625282082986e+02
8.112500000000000000e+01  4.243405202996774460e+04  2.143079276792956023e+02
8.125000000000000000e+01  4.338304860685580934e+04  2.070583523217494530e+02
8.137500000000000000e+01  4.433172879729660053e+04  2.006576931663049663e+02
8.150000000000000000e+01  4.553764307960539736e+04  2.115126321804865199e+02
8.162500000000000000e+01  4.607729747125107679e+04  2.148995848270338058e+02
8.175000000000000000e+01  4.709695761804408539e+04  2.146254301761492229e+02
8.187500000000000000e+01  4.824821177893891581e+04  2.264251162237879953e+02
8.200000000000000000e+01  4.817414181271368579e+04  2.197900193761715002e+02
8.212500000000000000e+01  4.917697444772072777e+04  2.427257238889487780e+02
8.225000000000000000e+01  4.941255484878220886e+04  2.295454384343335335e+02
8.237500000000000000e+01  4.910538075897572708e+04  2.403922719226310960e+02
8.250000000000000000e+01  4.851036338287759281e+04  2.272229173870745740e+02
8.262500000000000000e+01  4.835961833904965169e+04  2.208708382676007034e+02
8.275000000000000000e+01  4.778132058348401915e+04  2.009250866604949124e+02
8.287500000000000000e+01  4.734123644805592630e+04  2.121475431951895416e+02
8.300000000000000000e+01  4.631220850866991532e+04  2.164925687369207310e+02
8.312500000000000000e+01  4.510710226664151560e+04  2.073259851422526765e+02
8.325000000000000000e+01  4.465222483682877646e+04  2.150373001772580608e+02
8.337500000000000000e+01  4.312452077339373500e+04  2.160795550927181523e+02
8.350000000000000000e+01  4.254632816226843715e+04  2.238257636936634469e+02
8.362500000000000000e+01  4.098283928224307601e+04  2.063533709718433897e+02
8.375000000000000000e+01  4.052980662285795552e+04  2.204661311284308169e+02
8.387500000000000000e+01  3.993259085146201687e+04  2.022298694866734081e+02
8.400000000000000000e+01  3.953759854689411441e+04  2.180772868454840534e+02
8.412500000000000000e+01  3.948766231956189586e+04  1.696359431779553972e+02
8.425000000000000000e+01  3.949086815652065707e+04  1.907994063128249707e+02
8.437500000000000000e+01  3.997057920911523979e+04  1.992213691609065052e+02
8.450000000000000000e+01  3.965344235954155010e+04  1.889223295430309406e+02
8.462500000000000000e+01  4.049173119723426498e+04  2.198463294057163182e+02
8.475000000000000000e+01  4.041826646283725859e+04  2.029148082166778124e+02
8.487500000000000000e+01  4.123678513557367842e+04  2.196960833947557603e+02
8.500000000000000000e+01  4.125003677688144671e+04  2.094774298515179112e+02
8.512500000000000000e+01  4.184602246472989646e+04  2.218364483890605925e+02
8.525000000000000000e+01  4.197113223026663036e+04  2.105622301142652759e+02
8.537500000000000000e+01  4.178531945716750488e+04  2.113120392161570749e+02
8.550000000000000000e+01  4.178564745553868124e+04  1.767882298400457444e+02
8.562500000000000000e+01  4.184303521100623038e+04  1.910720556971268422e+02
8.575000000000000000e+01  4.154580381721275626e+04  1.964785379168006045e+02
8.587500000000000000e+01  4.116771457306508819e+04  2.021720709821109949e+02
8.600000000000000000e+01  4.055103845350674965e+04  2.202235207540520889e+02
8.612500000000000000e+01  4.078310818696875504e+04  2.036205049489038288e+02
8.625000000000000000e+01  4.029691298689896212e+04  2.158838921634376220e+02
8.637500000000000000e+01  3.984233281674690079e+04  2.045564917374891820e+02
8.650000000000000000e+01  3.965823235785994621e+04  2.141561808382175229e+02
8.662500000000000000e+01  3.885768383368619834e+04  2.007566027876861767e+02
8.675000000000000000e+01  3.801901575171930017e+04  2.079872129590149257e+02
8.687500000000000000e+01  3.789684636169795704e+04  1.613552383051261074e+02
8.700000000000000000e+01  3.714092048850152059e+04  1.741805819748276178e+02
8.712500000000000000e+01  3.669113199549871206e+04  1.936834594001409187e+02
8.725000000000000000e+01  3.606114676864162175e+04  1.934164476445250216e+02
8.737500000000000000e+01  3.616557020135871426e+04  2.059855377995426977e+02
8.750000000000000000e+01  3.591280854337800702e+04  1.931103185414345660e+02
8.762500000000000000e+01  3.607719174191224010e+04  2.019049038592545742e+02
8.775000000000000000e+01  3.573919384114784771e+04  1.922128861502177699e+02
8.787500000000000000e+01  3.568861018171357136e+04  1.656195449561958810e+02
8.800000000000000000e+01  3.209931589993036323e+04  5.004533873527723244e+02
8.812500000000000000e+01  3.623230721326667117e+04  1.763761118845741294e+02
8.825000000000000000e+01  3.539081347580168949e+04  1.485410189735735855e+02
8.837500000000000000e+01  3.550891286110088549e+04  1.708640915733564611e+02
8.850000000000000000e+01  3.520683202553168667e+04  2.011457763925365612e+02
8.862500000000000000e+01  3.495198078629728843e+04  1.882078736151178475e+02
8.875000000000000000e+01  3.526047524123796029e+04  1.996551302220421746e+02
8.887500000000000000e+01  3.507727803834249062e+04  1.901102768376180450e+02
8.900000000000000000e+01  3.505221149093689019e+04  2.000991680758176017e+02
8.912500000000000000e+01  3.467987992271885014e+04  1.880586977310113355e+02
8.925000000000000000e+01  3.546697844968363643e+04  2.023614222206118995e+02
8.937500000000000000e+01  3.490357074105786887e+04  1.888805429574673269e+02
8.950000000000000000e+01  3.515002993045636686e+04  2.021084847083348279e+02
8.962500000000000000e+01  3.504171156079917273e+04  1.371603245704961296e+02
8.975000000000000000e+01  3.477992590645316523e+04  1.865847928907271012e+02
8.987500000000000000e+01  3.499982166164836963e+04  1.998033509640184491e+02
9.000000000000000000e+01  3.444691855873848544e+04  1.852199032944228065e+02
9.012500000000000000e+01  3.444585029477635544e+04  1.976906030224774895e+02
9.025000000000000000e+01  3.480865836654625309e+04  1.870703404765750975e+02
9.037500000000000000e+01  3.491979546647988900e+04  2.017205099336711669e+02
9.050000000000000000e+01  3.484645397002102254e+04  1.872572387107089469e+02
9.062500000000000000e+01  3.462703388220573106e+04  1.966905450335105456e+02
9.075000000000000000e+01  3.500212318511790363e+04  1.905669551369072394e+02
9.087500000000000000e+01  3.463291318735161622e+04  1.852583794545843432e+02
9.100000000000000000e+01  3.475141005536647572e+04  1.408036365463799484e+02
9.112500000000000000e+01  3.483908832571384119e+04  1.871609161237917078e+02
9.125000000000000000e+01  3.475997626985082024e+04  1.979380683842245503e+02
9.137500000000000000e+01  3.475708152245381643e+04  1.860663867847295307e+02
9.150000000000000000e+01  3.412171184502284450e+04  1.987586355954477426e+02
9.162500000000000000e+01  3.465175625135885639e+04  1.850892687661025775e+02
9.175000000000000000e+01  3.492560269972063543e+04  2.009576249444110374e+02
9.187500000000000000e+01  3.470469583156030421e+04  1.840482929131099752e+02
9.200000000000000000e+01  3.463644009881965758e+04  1.991586965929172095e+02
9.212500000000000000e+01  3.447588267263324815e+04  1.869909753587709531e+02
9.225000000000000000e+01  3.460592332009642269e+04  1.662517095482727996e+02
9.237500000000000000e+01  3.449936641447759030e+04  1.492905637607620122e+02
9.250000000000000000e+01  3.421079223476371408e+04  1.847289938218018222e+02
9.262500000000000000e+01  3.468334921895058505e+04  1.990470936881204125e+02
9.275000000000000000e+01  3.479735760361424764e+04  1.892782733309024934e+02
9.287500000000000000e+01  3.408189424090152170e+04  1.925008536912393708e+02
9.300000000000000000e+01  3.424060800911668775e+04  1.876740126888200564e+02
9.312500000000000000e+01  3.438740997083396360e+04  1.975831157671539131e+02
9.325000000000000000e+01  3.416433696061995579e+04  1.824051157047119602e+02
9.337500000000000000e+01  3.392720729454927641e+04  1.941139385028765219e+02
9.350000000000000000e+01  3.403814640328136011e+04  1.728069609391908443e+02
9.362500000000000000e+01  3.377576640899011545e+04  1.685966687390011884e+02
9.375000000000000000e+01  3.368317936814112909e+04  1.526048556601836310e+02
9.387500000000000000e+01  3.397182328329310985e+04  1.835135516738237129e+02
9.400000000000000000e+01  3.365814553067774978e+04  1.933386622996001165e+02
9.412500000000000000e+01  3.406970284330567665e+04  1.870691429274644406e+02
9.425000000000000000e+01  3.410492097555257351e+04  1.920923922897043781e+02
9.437500000000000000e+01  3.386640436919392232e+04  1.854336799900282244e+02
9.450000000000000000e+01  3.382850381943490356e+04  1.914088592250520833e+02
9.462500000000000000e+01  3.410739540977618890e+04  1.873947856166253132e+02
9.475000000000000000e+01  3.351699947176385467e+04  1.814488655082712114e+02
9.487500000000000000e+01  3.377335476149725582e+04  1.719976781308739930e+02
9.500000000000000000e+01  3.361534848138280358e+04  1.690879530400964086e+02
9.512500000000000000e+01  3.368481681735554594e+04  1.569590519718185249e+02
9.525000000000000000e+01  3.383707923193929309e+04  1.837046455362459199e+02
9.537500000000000000e+01  3.367631032291235169e+04  1.939749615012965194e+02
9.550000000000000000e+01  3.370636694850769709e+04  1.820636363982105479e+02
9.562500000000000000e+01  3.369004428970353911e+04  1.904943478458903883e+02
9.575000000000000000e+01  3.378997400562294933e+04  1.844025457368999241e+02
9.587500000000000000e+01  3.377874340171198128e+04  1.919680645345305265e+02
9.600000000000000000e+01  3.353267093366843619e+04  1.776180566912678955e+02
9.612500000000000000e+01  3.378805142935142067e+04  1.793561469393017660e+02
9.625000000000000000e+01  3.387012993318670487e+04  1.747671694145590777e+02
9.637500000000000000e+01  3.337218518256342941e+04  1.704682736613943916e+02
9.650000000000000000e+01  3.398008711872388085e+04  1.609093957076465813e+02
9.662500000000000000e+01  3.406272411804353760e+04  1.755367491284023060e+02
9.675000000000000000e+01  3.455617405466244236e+04  1.942554010993078748e+02
9.687500000000000000e+01  3.464327769886508759e+04  1.841789788797402707e+02
9.700000000000000000e+01  3.488931957114755642e+04  1.965197869298642388e+02
9.712500000000000000e+01  3.526487415634936769e+04  1.867016577826346122e+02
9.725000000000000000e+01  3.531057837893135729e+04  1.900837260888074240e+02
9.737500000000000000e+01  3.557900920247524482e+04  1.793423500684777139e+02
9.750000000000000000e+01  3.653111986198031082e+04  1.861121615281124662e+02
9.762500000000000000e+01  3.636969714318861224e+04  1.800634514271970374e+02
9.775000000000000000e+01  3.688854635847562167e+04  1.788915416791141126e+02
9.787500000000000000e+01  3.708851516196363809e+04  1.708767182271425327e+02
9.800000000000000000e+01  3.778931822409920278e+04  1.797230944214912824e+02
9.812500000000000000e+01  3.809393422707274294e+04  2.023840956264537851e+02
9.825000000000000000e+01  3.833926088361240545e+04  1.915503029539125350e+02
9.837500000000000000e+01  3.856120640062447637e+04  2.010633630685882167e+02
9.850000000000000000e+01  3.860440117417024157e+04  1.862384310045966345e+02
9.862500000000000000e+01  3.866967572100520192e+04  1.960176928901840938e+02
9.875000000000000000e+01  3.824178732839284203e+04  1.792566275573855137e+02
9.887500000000000000e+01  3.774276828268440295e+04  1.872842323475788930e+02
9.900000000000000000e+01  3.824802189511856704e+04  1.830509922069355468e+02
9.912500000000000000e+01  3.759313731093970273e+04  1.775415405319462536e+02
9.925000000000000000e+01  3.759738587105570332e+04  1.741310316178968378e+02
9.937500000000000000e+01  3.703108254419145669e+04  1.665416200570777505e+02
9.950000000000000000e+01  3.671766734558151802e+04  1.957892752388959536e+02
9.962500000000000000e+01  3.637960124529272434e+04  1.823040850822059440e+02
9.975000000000000000e+01  3.550137531508948450e+04  1.861493768158136675e+02
9.987500000000000000e+01  3.502015128776084748e+04  1.710173020832946236e+02
1.000000000000000000e+02  3.435280822467946564e+04  1.761775139541695125e+02
1.001250000000000000e+02  3.415604855160062289e+04  1.721412351610034079e+02
1.002500000000000000e+02  3.392517767096507305e+04  1.738313274209989174e+02
1.003750000000000000e+02  3.339405789960275433e+04  1.655688848466147078e+02
1.005000000000000000e+02  3.255841357219177735e+04  1.638170837214840674e+02
1.006250000000000000e+02  3.198813684958672457e+04  1.604650582856575909e+02
1.007500000000000000e+02  3.187812468309883843e+04  1.544264578307870295e+02
1.008750000000000000e+02  3.125365320255020197e+04  1.753251995321898562e+02
1.010000000000000000e+02  3.086866721051776403e+04  1.658001064909164199e+02
1.011250000000000000e+02  3.082662873011614283e+04  1.713092854411437713e+02
1.012500000000000000e+02  3.124200896118630044e+04  1.631064048666854944e+02
1.013750000000000000e+02  3.105700938444296480e+04  1.699389385889805624e+02
1.015000000000000000e+02  3.067074181345656689e+04  1.629257309937454181e+02
1.016250000000000000e+02  3.121730962087535954e+04  1.684716952498321803e+02
1.017500000000000000e+02  3.074120979963208447e+04  1.631229419303325301e+02
1.018750000000000000e+02  3.086793977501113477e+04  1.651164213531373832e+02
1.020000000000000000e+02  3.116298761137478505e+04  1.631704220050884828e+02
1.021250000000000000e+02  3.109598420505072863e+04  1.540254714866943573e+02
1.022500000000000000e+02  3.089815892747930411e+04  1.760900476052702288e+02
1.023750000000000000e+02  3.125825978749160640e+04  1.672449721499707493e+02
1.025000000000000000e+02  3.114336105569782740e+04  1.487611935736626094e+02
1.026250000000000000e+02  3.060142787273259455e+04  3.028360362581254890e+02
1.027500000000000000e+02  3.171172102071643531e+04  1.547520932836923464e+02
1.028750000000000000e+02  3.122548730352940038e+04  1.669239435502963715e+02
1.030000000000000000e+02  3.153841221379555282e+04  1.722382184826872731e+02
1.031250000000000000e+02  3.132420833428170954e+04  1.698169501391926133e+02
1.032500000000000000e+02  3.120201688923173788e+04  1.670804204411543310e+02
1.033750000000000000e+02  3.114246189060549659e+04  1.648487855565374218e+02
1.035000000000000000e+02  3.116531028949284519e+04  1.571282513672889820e+02
1.036250000000000000e+02  3.125498829029254921e+04  1.761662353018022884e+02
1.037500000000000000e+02  3.110474346407198027e+04  1.714938208460399949e+02
1.038750000000000000e+02  3.117305261941814388e+04  1.741266784382328581e+02
1.040000000000000000e+02  3.051255770736978593e+04  1.675831297949188468e+02
1.041250000000000000e+02  3.078488290151056935e+04  1.730033917272492658e+02
1.042500000000000000e+02  3.090860544397622652e+04  1.686604287797405561e+02
1.043750000000000000e+02  3.103430733504388263e+04  1.715807628411913868e+02
1.045000000000000000e+02  3.086604126318174531e+04  1.670975402990355292e+02
1.046250000000000000e+02  3.064274638968947693e+04  1.675818664387932415e+02
1.047500000000000000e+02  3.072254475376303526e+04  1.652490246884364069e+02
1.048750000000000000e+02  3.086753301514892519e+04  1.541143610304789320e+02
1.050000000000000000e+02  3.048388057938132624e+04  1.727943449681996242e+02
1.051250000000000000e+02  3.088564462565944996e+04  1.690189713374600160e+02
1.052500000000000000e+02  3.085023734980877271e+04  1.765437861478413311e+02
1.053750000000000000e+02  3.065365312970901505e+04  1.689836521425662568e+02
1.055000000000000000e+02  3.061143167053789875e+04  1.712837591257948873e+02
1.056250000000000000e+02  3.040828928633177566e+04  1.679093685184380433e+02
1.057500000000000000e+02  3.054011792052767123e+04  1.716089055100932512e+02
1.058750000000000000e+02  3.049508356127716979e+04  1.684734110759622467e+02
1.060000000000000000e+02  3.080346201473590190e+04  1.662915512557351008e+02
1.061250000000000000e+02  3.074045658238940814e+04  1.664689055263733906e+02
1.062500000000000000e+02  3.018733988902526835e+04  1.503551975401137213e+02
1.063750000000000000e+02  3.041989751289727792e+04  1.748212230449237552e+02
1.065000000000000000e+02  3.065036983582157336e+04  1.667283659495591337e+02
1.066250000000000000e+02  3.077508892248154734e+04  1.749742965895278246e+02
1.067500000000000000e+02  3.015209342540577563e+04  1.671380504648137162e+02
1.068750000000000000e+02  3.012471547992396154e+04  1.717686520315671430e+02
1.070000000000000000e+02  3.013650668939861134e+04  1.654703453663639436e+02
1.071250000000000000e+02  3.013758028103541801e+04  1.692615057036220492e+02
1.072500000000000000e+02  3.001418234376811961e+04  1.676822297800017623e+02
1.073750000000000000e+02  3.044310064948023137e+04  1.654614086748792374e+02
1.075000000000000000e+02  3.027259450402417860e+04  1.636284746796435741e+02
1.076250000000000000e+02  3.037287689455122381e+04  1.502540268905544565e+02
1.077500000000000000e+02  3.053707367188806893e+04  1.753383410445224513e+02
1.078750000000000000e+02  3.045443612704409679e+04  1.688892493330888840e+02
1.080000000000000000e+02  3.007384511217648469e+04  1.719825644649077390e+02
1.081250000000000000e+02  3.013141675688306714e+04  1.674794861108339035e+02
1.082500000000000000e+02  2.993941087320309816e+04  1.693926993644814445e+02
1.083750000000000000e+02  2.965785726713117037e+04  1.675344532343571018e+02
1.085000000000000000e+02  3.007859582371460783e+04  1.700414408841951115e+02
1.086250000000000000e+02  2.999807460579073449e+04  1.659481028479514180e+02
1.087500000000000000e+02  3.031747227101833778e+04  1.649638869319860248e+02
1.088750000000000000e+02  2.970988715293610949e+04  1.614191069054671743e+02
1.090000000000000000e+02  2.988880618820806558e+04  1.557998223231772670e+02
1.091250000000000000e+02  2.989755218932521529e+04  1.633624073537886545e+02
1.092500000000000000e+02  3.023201159688468033e+04  1.693092341637642733e+02
1.093750000000000000e+02  2.969076151235668658e+04  1.717808107929192829e+02
1.095000000000000000e+02  2.968233389301659918e+04  1.649324008269763624e+02
1.096250000000000000e+02  2.995642095258338304e+04  1.684354354494088852e+02
1.097500000000000000e+02  2.964483589849104101e+04  1.688951963852108520e+02
1.098750000000000000e+02  2.952848422195981038e+04  1.683498347005521225e+02
1.100000000000000000e+02  2.978514866876572341e+04  1.642158316321483937e+02
1.101250000000000000e+02  2.986837340591146858e+04  1.646521577667630254e+02
1.102500000000000000e+02  3.000675622274465059e+04  1.626531778588785073e+02
1.103750000000000000e+02  2.971786776885576910e+04  1.561634508494596218e+02
1.105000000000000000e+02  3.002699310467992836e+04  1.640745806622163627e+02
1.106250000000000000e+02  2.989579996256811137e+04  1.672376178074855773e+02
1.107500000000000000e+02  2.990815958365495680e+04  1.717385546562367153e+02
1.108750000000000000e+02  3.003147549792347490e+04  1.671202968713219832e+02
1.110000000000000000e+02  3.010785072315687648e+04  1.713108459962959955e+02
1.111250000000000000e+02  3.023735266191551273e+04  1.680423536705103231e+02
1.112500000000000000e+02  3.051676072534731065e+04  1.677226194134948400e+02
1.113750000000000000e+02  3.028318968271528865e+04  1.665294645911501732e+02
1.115000000000000000e+02  3.050930185814592551e+04  1.635611254611790741e+02
1.116250000000000000e+02  3.047894546287124103e+04  1.659924575606910082e+02
1.117500000000000000e+02  3.105595415094205237e+04  1.623742246003345144e+02
1.118750000000000000e+02  3.081765182888863274e+04  1.617440399473535990e+02
1.120000000000000000e+02  3.092764184155101611e+04  1.707537173190499402e+02
1.121250000000000000e+02  3.140191439414185515e+04  1.709734369831350023e+02
1.122500000000000000e+02  3.126799795982121213e+04  1.799658481766309990e+02
1.123750000000000000e+02  3.134639855082214490e+04  1.744214272859200889e+02
1.125000000000000000e+02  3.172503144122983940e+04  1.685381021075705803e+02
1.126250000000000000e+02  3.207777445501425973e+04  1.728312309887785716e+02
1.127500000000000000e+02  3.168259785088994977e+04  1.723943808500342527e+02
1.128750000000000000e+02  3.177453020757549166e+04  1.691427195037543925e+02
1.130000000000000000e+02  3.212780154000923721e+04  1.684671886400373353e+02
1.131250000000000000e+02  3.197761564670993539e+04  1.644903385616739229e+02
1.132500000000000000e+02  3.214092197761119314e+04  1.662745714808083903e+02
1.133750000000000000e+02  3.264213868105816800e+04  1.740079025418510241e+02
1.135000000000000000e+02  3.279031899898326810e+04  1.827134445375143912e+02
1.136250000000000000e+02  3.229732475008841720e+04  1.733112138250126009e+02
1.137500000000000000e+02  3.244154828099396036e+04  1.736407010892723406e+02
1.138750000000000000e+02  3.238698708336154596e+04  1.709986779076682808e+02
1.140000000000000000e+02  3.278255169127542467e+04  1.772910667619122478e+02
1.141250000000000000e+02  3.278490344304164319e+04  1.724685370078637732e+02
1.142500000000000000e+02  3.246455641509106863e+04  1.731917234181599667e+02
1.143750000000000000e+02  3.291748045033418748e+04  1.724918342872192056e+02
1.145000000000000000e+02  3.244496285067763529e+04  1.682057316359523895e+02
1.146250000000000000e+02  3.222599250392560498e+04  1.632852651411073452e+02
1.147500000000000000e+02  3.299963067086527008e+04  1.772586064199171574e+02
1.148750000000000000e+02  3.235012701025186107e+04  1.782382907114518105e+02
1.150000000000000000e+02  3.271426757893878312e+04  1.736219682879768129e+02
1.151250000000000000e+02  3.244091396896344304e+04  1.739440440611744521e+02
1.152500000000000000e+02  3.264802008053928512e+04  1.753218681524635940e+02
1.153750000000000000e+02  3.263438403484818264e+04  1.751476542526810931e+02
1.155000000000000000e+02  3.267307019108146051e+04  1.733374255418597158e+02
1.156250000000000000e+02  3.247849989552783154e+04  1.736346528429174612e+02
1.157500000000000000e+02  3.276766293742595735e+04  1.721635743274712809e+02
1.158750000000000000e+02  3.220606115048927677e+04  1.662249701211844695e+02
1.160000000000000000e+02  3.233338639402579429e+04  1.646579407149622511e+02
1.161250000000000000e+02  3.233987867009708134e+04  1.737347792410587317e+02
1.162500000000000000e+02  3.227199318225608295e+04  1.774875098610250745e+02
1.163750000000000000e+02  3.276794587991947992e+04  1.745942277601807007e+02
1.165000000000000000e+02  3.209438898853144565e+04  1.751674635608837889e+02
1.166250000000000000e+02  3.258896466880607477e+04  1.739296823435000192e+02
1.167500000000000000e+02  3.246058907390318927e+04  1.747695357160267520e+02
1.168750000000000000e+02  3.256674139644599563e+04  1.719669317587855630e+02
1.170000000000000000e+02  3.269088618842793949e+04  1.656982652628189214e+02
1.171250000000000000e+02  3.279098700040304539e+04  1.622382088379831373e+02
1.172500000000000000e+02  3.275077244506489660e+04  1.847233189919077176e+02
1.173750000000000000e+02  3.320435534536654450e+04  1.560731453380536493e+02
1.175000000000000000e+02  3.284368010077306099e+04  2.230499567588488787e+02
1.176250000000000000e+02  3.325907498448817933e+04  1.937206387405856560e+02
1.177500000000000000e+02  3.323315425630164100e+04  1.653104361944892844e+02
1.178750000000000000e+02  3.334429247431218391e+04  1.785313926149290467e+02
1.180000000000000000e+02  3.329961795459073619e+04  1.762748343838660503e+02
1.181250000000000000e+02  3.302228608629093651e+04  1.748165483601036101e+02
1.182500000000000000e+02  3.293097817453850439e+04  1.733521535629076880e+02
1.183750000000000000e+02  3.344412736935197609e+04  1.750114151720809161e+02
1.185000000000000000e+02  3.313941059057979874e+04  1.740519103031262773e+02
1.186250000000000000e+02  3.322275788300497516e+04  1.715775986512055624e+02
1.187500000000000000e+02  3.323961856332426396e+04  1.638433805243340942e+02
1.188750000000000000e+02  3.303108542853459949e+04  1.747554176180999832e+02
1.190000000000000000e+02  3.322844121235732018e+04  1.782897257172488992e+02
1.191250000000000000e+02  3.273980930944385545e+04  1.740642193794151069e+02
1.192500000000000000e+02  3.304061993944075948e+04  1.786997904450056467e+02
1.193750000000000000e+02  3.263755595465372608e+04  1.715557733816470716e+02
1.195000000000000000e+02  3.251617698103767543e+04  1.744981626667564285e+02
1.196250000000000000e+02  3.211738800139230807e+04  1.721746927956229456e+02
1.197500000000000000e+02  3.223385985823352894e+04  1.729980543113850615e+02
1.198750000000000000e+02  3.198950213285874270e+04  1.689000139952387087e+02
1.200000000000000000e+02  3.221297978473251351e+04  1.681114543501940659e+02
1.201250000000000000e+02  3.188609283657312335e+04  1.613705035361134890e+02
1.202500000000000000e+02  3.133513385787331572e+04  1.670476743602278589e+02
1.203750000000000000e+02  3.121728672185311734e+04  1.745290281144129096e+02
1.205000000000000000e+02  3.097170739984400643e+04  1.682102622516003407e+02
1.206250000000000000e+02  3.079681523526462479e+04  1.722725218540050207e+02
1.207500000000000000e+02  3.110347398790016450e+04  1.703564843406074090e+02
1.208750000000000000e+02  3.072393354210016332e+04  1.699037407183049879e+02
1.210000000000000000e+02  3.043408053803328221e+04  1.666601624440258149e+02
1.211250000000000000e+02  3.057393408406428352e+04  1.661725019579617140e+02
1.212500000000000000e+02  3.023163409087533364e+04  1.631688947139867878e+02
1.213750000000000000e+02  3.030979781095253202e+04  1.651177889862166808e+02
1.215000000000000000e+02  3.023835774820361257e+04  1.586141173969953400e+02
1.216250000000000000e+02  2.997317718062600397e+04  1.610065571547504533e+02
1.217500000000000000e+02  2.991994157410686239e+04  1.692635818539627905e+02
1.218750000000000000e+02  2.952729669633012600e+04  1.665367357530966501e+02
1.220000000000000000e+02  2.954331491919881228e+04  1.676083251473318683e+02
1.221250000000000000e+02  2.960584253593268659e+04  1.654112565442699179e+02
1.222500000000000000e+02  2.962576865275057935e+04  1.672998105717160513e+02
1.223750000000000000e+02  2.949609783100258574e+04  1.622428972023363372e+02
1.225000000000000000e+02  2.942002669009201054e+04  1.657131021090198715e+02
1.226250000000000000e+02  2.959823976379245869e+04  1.629304788323714206e+02
1.227500000000000000e+02  2.947493730693329053e+04  1.603960947165523692e+02
1.228750000000000000e+02  2.914365188437526376e+04  1.587273302370838337e+02
1.230000000000000000e+02  2.943923588395260231e+04  1.571753229173442605e+02
1.231250000000000000e+02  2.933396746479966168e+04  1.685915884941198328e+02
1.232500000000000000e+02  2.933303497592227359e+04  1.653805924443628896e+02
1.233750000000000000e+02  2.924492637546708647e+04  1.668987383365752635e+02
1.235000000000000000e+02  2.908979067381508139e+04  1.637750712683381096e+02
1.236250000000000000e+02  2.946691670692154003e+04  1.646222153580998508e+02
1.237500000000000000e+02  2.902581552416598788e+04  1.628352724485297358e+02
1.238750000000000000e+02  2.954904184319248816e+04  1.666381782956017901e+02
1.240000000000000000e+02  2.893175126319251649e+04  1.593244106019351705e+02
1.241250000000000000e+02  2.913550485165857754e+04  1.600513718679799240e+02
1.242500000000000000e+02  2.878645633672742406e+04  1.589369241971693327e+02
1.243750000000000000e+02  2.852858653072959714e+04  1.548455558467470041e+02
1.245000000000000000e+02  2.866329704986455909e+04  1.700075734454312908e+02
1.246250000000000000e+02  2.891608934633825265e+04  1.621635763944524058e+02
1.247500000000000000e+02  2.870632537335821326e+04  1.661352510413391599e+02
1.248750000000000000e+02  2.880514588474304401e+04  1.598264665124686132e+02
1.250000000000000000e+02  2.907243780169352976e+04  1.664573797167714986e+02
1.251250000000000000e+02  2.844940776159537563e+04  1.598407460925256203e+02
1.252500000000000000e+02  2.864128744540621847e+04  1.639887818282464025e+02
1.253750000000000000e+02  2.839787972532081039e+04  1.604118396276227259e+02
1.255000000000000000e+02  2.834251839145518898e+04  1.596666581521740511e+02
1.256250000000000000e+02  2.817118367671441592e+04  1.568676904866020436e+02
1.257500000000000000e+02  2.813086462933968505e+04  1.519965650713357093e+02
1.258750000000000000e+02  2.802964314840399311e+04  1.641970473616034667e+02
1.260000000000000000e+02  2.829355848422862255e+04  1.609512218927337415e+02
1.261250000000000000e+02  2.782270716204091514e+04  1.635018239085026721e+02
1.262500000000000000e+02  2.826591032826412629e+04  1.600472909782442912e+02
1.263750000000000000e+02  2.825927581881164224e+04  1.643064462802011860e+02
1.265000000000000000e+02  2.792567789050011197e+04  1.586046342541791319e+02
1.266250000000000000e+02  2.770900088786344350e+04  1.598395236053633255e+02
1.267500000000000000e+02  2.787550215721240238e+04  1.598217775392678561e+02
1.268750000000000000e+02  2.782785171654421356e+04  1.581587531552535211e+02
1.270000000000000000e+02  2.755825634524335328e+04  1.567100616452613622e+02
1.271250000000000000e+02  2.781498178945515610e+04  1.520693789200599326e+02
1.272500000000000000e+02  2.771016967236226628e+04  1.603056717940474982e+02
1.273750000000000000e+02  2.755080973853580872e+04  1.602170405295791227e+02
1.275000000000000000e+02  2.772951662393402876e+04  1.626119902804154833e+02
1.276250000000000000e+02  2.772314380104498559e+04  1.576961452666963055e+02
1.277500000000000000e+02  2.770181595233521148e+04  1.622933512835460306e+02
1.278750000000000000e+02  2.787843423462492137e+04  1.597126361327766801e+02
1.280000000000000000e+02  2.737966034330897310e+04  1.604390202100252623e+02
1.281250000000000000e+02  2.763003204403972632e+04  1.580278637346627022e+02
1.282500000000000000e+02  2.732279349880479640e+04  1.581917806555046582e+02
1.283750000000000000e+02  2.768357483089894959e+04  1.566119714102431431e+02
1.285000000000000000e+02  2.742574909096659758e+04  1.500872449700905520e+02
1.286250000000000000e+02  2.734360749949554520e+04  1.615111708742185215e+02
1.287500000000000000e+02  2.732477128284244827e+04  1.573745440906158137e+02
1.288750000000000000e+02  2.741894279243063647e+04  1.631790875123169826e+02
1.290000000000000000e+02  2.749448631937682876e+04  1.592499084634754922e+02
1.291250000000000000e+02  2.726884777467815002e+04  1.611820959384121181e+02
1.292500000000000000e+02  2.766182377012112920e+04  1.583444244560432139e+02
1.293750000000000000e+02  2.740959827210216827e+04  1.603448933940499046e+02
1.295000000000000000e+02  2.740347301278999657e+04  1.597415354741931708e+02
1.296250000000000000e+02  2.748819007528348811e+04  1.564026909271499051e+02
1.297500000000000000e+02  2.737117583992610525e+04  1.568349188404328345e+02
1.298750000000000000e+02  2.757272470133222305e+04  1.496287429298437530e+02
1.300000000000000000e+02  2.724376759522468637e+04  1.622055178380437894e+02
1.301250000000000000e+02  2.754973156784715684e+04  1.595244094143861560e+02
1.302500000000000000e+02  2.735888636404652789e+04  1.623108352273007426e+02
1.303750000000000000e+02  2.739829423590336592e+04  1.590908760499666528e+02
1.305000000000000000e+02  2.721452237370532021e+04  1.607907802413082834e+02
1.306250000000000000e+02  2.728065462986365674e+04  1.604328095880605929e+02
1.307500000000000000e+02  2.722732289562064761e+04  1.592268331879348011e+02
1.308750000000000000e+02  2.721956221366988393e+04  1.589858268723439778e+02
1.310000000000000000e+02  2.716351343621021442e+04  1.574835364088249321e+02
1.311250000000000000e+02  2.724950965305204591e+04  1.596243033032789356e+02
1.312500000000000000e+02  2.690436227630257417e+04  1.504469793821311896e+02
1.313750000000000000e+02  2.718465632861482300e+04  1.687674312114083364e+02
1.315000000000000000e+02  2.692281122134363250e+04  1.611970995257197785e+02
1.316250000000000000e+02  2.706072574991553847e+04  1.671402610511096327e+02
1.317500000000000000e+02  2.720325685666497156e+04  1.758639313671309594e+02
1.318750000000000000e+02  2.722486003612999048e+04  1.997512724449908603e+02
1.320000000000000000e+02  2.697389131418272518e+04  5.285950760893948654e+02
