# DMC at SINQ, PSI: Sample name = Unknown, wavelength = 2.450 AA, T = 0.0 K
# Filelist='dmc:2022:579'
#   0.000   0.125 132.000     142., sample="Unknown"
0.000000000000000000e+00  2.681240580568913356e+04  1.593832087986668967e+03
1.250000000000000000e-01  2.386695073466032409e+04  1.048653611288560114e+03
2.500000000000000000e-01  2.351471471543908046e+04  6.726731782256246106e+02
3.750000000000000000e-01  2.300927532561671978e+04  6.661663922809040059e+02
5.000000000000000000e-01  2.449193033863340315e+04  5.202812050816592091e+02
6.250000000000000000e-01  2.487874256550026985e+04  5.203437149086981890e+02
7.500000000000000000e-01  2.425293220018166903e+04  4.285344920751401219e+02
8.750000000000000000e-01  2.355599960976626244e+04  4.041604058802396935e+02
1.000000000000000000e+00  2.419052067421825996e+04  4.120857336917873113e+02
1.125000000000000000e+00  2.394823197833836093e+04  3.452675617989293073e+02
1.250000000000000000e+00  2.419430857455118166e+04  3.634237785630507460e+02
1.375000000000000000e+00  2.418615633957132741e+04  3.174703376914976616e+02
1.500000000000000000e+00  2.363922141097990971e+04  3.329467804363367236e+02
1.625000000000000000e+00  2.379537975663104226e+04  2.987050784354379402e+02
1.750000000000000000e+00  2.409060723540910476e+04  3.144066382027077111e+02
1.875000000000000000e+00  2.421853886393182984e+04  2.818778287903410273e+02
2.000000000000000000e+00  2.462709631011238889e+04  2.957049990497732779e+02
2.125000000000000000e+00  2.348173569541619509e+04  2.606829900570338054e+02
2.250000000000000000e+00  2.364780393925359022e+04  2.611781606706286425e+02
2.375000000000000000e+00  2.364307685409396436e+04  2.529430937336973102e+02
2.500000000000000000e+00  2.432843136512311321e+04  2.478110379082881423e+02
2.625000000000000000e+00  2.429766796094027086e+04  2.544711869514786713e+02
2.750000000000000000e+00  2.398939447723436024e+04  2.347168538319128004e+02
2.875000000000000000e+00  2.384301868069636112e+04  2.387168190725216164e+02
3.000000000000000000e+00  2.397713616416276273e+04  2.278993654111235685e+02
3.125000000000000000e+00  2.381958384775868763e+04  2.234439278696803513e+02
3.250000000000000000e+00  2.374558952155750740e+04  2.240648552647664360e+02
3.375000000000000000e+00  2.339531752052051525e+04  2.115772595765747610e+02
3.500000000000000000e+00  2.385272538877897387e+04  2.080135594646964137e+02
3.625000000000000000e+00  2.368555452123421492e+04  2.046425728801131925e+02
3.750000000000000000e+00  2.342158077883788064e+04  2.034506605925074609e+02
3.875000000000000000e+00  2.390722565605059935e+04  1.985934946287038372e+02
4.000000000000000000e+00  2.388197028527168004e+04  2.003636633027160201e+02
4.125000000000000000e+00  2.381988900405903041e+04  1.939205774561552857e+02
4.250000000000000000e+00  2.397315455195492905e+04  1.937608176421443318e+02
4.375000000000000000e+00  2.302087099077703897e+04  1.884805106123204723e+02
4.500000000000000000e+00  2.405746647459576343e+04  1.832766974653233092e+02
4.625000000000000000e+00  2.376414619137533009e+04  1.873924919503564865e+02
4.750000000000000000e+00  2.390036492650120636e+04  1.770737493949168027e+02
4.875000000000000000e+00  2.368973731676999887e+04  1.832947409317970653e+02
5.000000000000000000e+00  2.384609923514140610e+04  1.698576268872009507e+02
5.125000000000000000e+00  2.400148600311234622e+04  1.781950146726742048e+02
5.250000000000000000e+00  2.353282766898973568e+04  1.701706849650030335e+02
5.375000000000000000e+00  2.384454154734956683e+04  1.756364001570610469e+02
5.500000000000000000e+00  2.365873341985532898e+04  1.670338062938441226e+02
5.625000000000000000e+00  2.368619908953736012e+04  1.620101833936294611e+02
5.750000000000000000e+00  2.357718474071650780e+04  1.659049199951690809e+02
5.875000000000000000e+00  2.377394777712365976e+04  1.597438851711780217e+02
6.000000000000000000e+00  2.371980991557409652e+04  1.651675605033223633e+02
6.125000000000000000e+00  2.364070391965656017e+04  1.558144547252942687e+02
6.250000000000000000e+00  2.356499508638965563e+04  1.584042517804753913e+02
6.375000000000000000e+00  2.374210375220388596e+04  1.529268165963816557e+02
6.500000000000000000e+00  2.380849596089010811e+04  1.556875872214434082e+02
6.625000000000000000e+00  2.332327514198223798e+04  1.480850328259186313e+02
6.750000000000000000e+00  2.363620939361992350e+04  1.512100106477367945e+02
6.875000000000000000e+00  2.342224561914295191e+04  1.447915660324875944e+02
7.000000000000000000e+00  2.348319178379689765e+04  1.484287482211357485e+02
7.125000000000000000e+00  2.338254487444508413e+04  1.444881793388915696e+02
7.250000000000000000e+00  2.303382829274756295e+04  1.471667414691909244e+02
7.375000000000000000e+00  2.261314760363291862e+04  1.483475347680971481e+02
7.500000000000000000e+00  2.247151766988286181e+04  1.480666159620900544e+02
7.625000000000000000e+00  2.192878598693654931e+04  1.445124749572175631e+02
7.750000000000000000e+00  2.153437182934957673e+04  1.444251877425639634e+02
7.875000000000000000e+00  2.156174182124384970e+04  1.419580562799511938e+02
8.000000000000000000e+00  2.149103119893281837e+04  1.431749436481049997e+02
8.125000000000000000e+00  2.138724919097776365e+04  1.413494393865564973e+02
8.250000000000000000e+00  2.100827908134488098e+04  1.386481228553995493e+02
8.375000000000000000e+00  2.096153825098404923e+04  1.431163513920615173e+02
8.500000000000000000e+00  2.097052180130414490e+04  1.379520179061293845e+02
8.625000000000000000e+00  2.049560700983203424e+04  1.389892076684691915e+02
8.750000000000000000e+00  2.057497317443643260e+04  1.375706219224484244e+02
8.875000000000000000e+00  2.055618658506586507e+04  1.390233257700862737e+02
9.000000000000000000e+00  2.148784912252976210e+04  1.396139288721399794e+02
9.125000000000000000e+00  2.155199218256381937e+04  1.336263790916577250e+02
9.250000000000000000e+00  2.182861573344355565e+04  1.435720338948215158e+02
9.375000000000000000e+00  2.186004310579940284e+04  1.328466910683926301e+02
9.500000000000000000e+00  2.142835097917698295e+04  1.436785942562684397e+02
9.625000000000000000e+00  2.122786923407860013e+04  1.326249755420170686e+02
9.750000000000000000e+00  2.073201423049220102e+04  1.368874785973038115e+02
9.875000000000000000e+00  2.072312061924365844e+04  1.322387262303694797e+02
1.000000000000000000e+01  2.065510262219546348e+04  1.326992824697887272e+02
1.012500000000000000e+01  2.050100651961504263e+04  1.341942976801009308e+02
1.025000000000000000e+01  2.014522371597251913e+04  1.310232472117947395e+02
1.037500000000000000e+01  2.046842727484690477e+04  1.347598990440552598e+02
1.050000000000000000e+01  1.993423232600496704e+04  1.261079474441564088e+02
1.062500000000000000e+01  2.012750836672322839e+04  1.328266316583988100e+02
1.075000000000000000e+01  2.022606176470710852e+04  1.291932053667032676e+02
1.087500000000000000e+01  1.981127427360134243e+04  1.317447504476054974e+02
1.100000000000000000e+01  1.969367257489776966e+04  1.298280110398193017e+02
1.112500000000000000e+01  1.966474662499701662e+04  1.299539784004735168e+02
1.125000000000000000e+01  1.966352796971310454e+04  1.323221059006737335e+02
1.137500000000000000e+01  1.948639173089414180e+04  1.306546845214056702e+02
1.150000000000000000e+01  1.962826077738625827e+04  1.311380525266180541e+02
1.162500000000000000e+01  1.954368087939285033e+04  1.311331610269621422e+02
1.175000000000000000e+01  1.957424196079425019e+04  1.315159665423438753e+02
1.187500000000000000e+01  1.953255002596511622e+04  1.280031991958528863e+02
1.200000000000000000e+01  1.929561600764820105e+04  1.313356480516101783e+02
1.212500000000000000e+01  1.952495721309220608e+04  1.267213332492472517e+02
1.225000000000000000e+01  1.949196190982790722e+04  1.349805776640832562e+02
1.237500000000000000e+01  1.971818814216211831e+04  1.279862279191699201e+02
1.250000000000000000e+01  1.931250346392022038e+04  1.347169044713562869e+02
1.262500000000000000e+01  1.934009867131390638e+04  1.299662682407485761e+02
1.275000000000000000e+01  1.932100025875843858e+04  1.318386653193312839e+02
1.287500000000000000e+01  1.969034712272716206e+04  1.297497122688398008e+02
1.300000000000000000e+01  1.983663719492777818e+04  1.360174143176461143e+02
1.312500000000000000e+01  1.940002414026184488e+04  1.305429938610985516e+02
1.325000000000000000e+01  1.984758875792858089e+04  1.313344677724570886e+02
1.337500000000000000e+01  1.989233758634454352e+04  1.329617350029146223e+02
1.350000000000000000e+01  1.965352918197858889e+04  1.287241686707251063e+02
1.362500000000000000e+01  1.977911049483382885e+04  1.364011711687689399e+02
1.375000000000000000e+01  1.997985093217236499e+04  1.301653480677778134e+02
1.387500000000000000e+01  1.975433666616116898e+04  1.358336169548515500e+02
1.400000000000000000e+01  1.974759248457549620e+04  1.322040944709184203e+02
1.412500000000000000e+01  1.953585027478945995e+04  1.337381966289250101e+02
1.425000000000000000e+01  1.962484937185853414e+04  1.311884791264348280e+02
1.437500000000000000e+01  1.964160407372633927e+04  1.364197663736970583e+02
1.450000000000000000e+01  1.965830127638900012e+04  1.215514999117772277e+02
1.462500000000000000e+01  1.957613253663753858e+04  1.371511343982093933e+02
1.475000000000000000e+01  1.960666004636322759e+04  1.328235255813148683e+02
1.487500000000000000e+01  1.962582807784536999e+04  1.333117638482876259e+02
1.500000000000000000e+01  1.953862616186254672e+04  1.342710280107759502e+02
1.512500000000000000e+01  1.985627976665639653e+04  1.335919736214190152e+02
1.525000000000000000e+01  2.030518269415226314e+04  1.373351868004955918e+02
1.537500000000000000e+01  2.105331279486367202e+04  1.383410811507334301e+02
1.550000000000000000e+01  2.219431558750605836e+04  1.459994369136983607e+02
1.562500000000000000e+01  2.272478732064476571e+04  1.402524182351336322e+02
1.575000000000000000e+01  2.300697504854827639e+04  1.482717232654676707e+02
1.587500000000000000e+01  2.293788578511085871e+04  1.427884369116707148e+02
1.600000000000000000e+01  2.220603058899900861e+04  1.408211767357551878e+02
1.612500000000000000e+01  2.202004831191213088e+04  1.390530366643626223e+02
1.625000000000000000e+01  2.147703152703888554e+04  1.407520683683349887e+02
1.637500000000000000e+01  2.096046137455313510e+04  1.367426119520979171e+02
1.650000000000000000e+01  2.072164565357926767e+04  1.388558349850927129e+02
1.662500000000000000e+01  2.028235204127188626e+04  1.343555720256859445e+02
1.675000000000000000e+01  2.005443917386711473e+04  1.360443964273396773e+02
1.687500000000000000e+01  1.993173800643246432e+04  1.335117115602678552e+02
1.700000000000000000e+01  1.936072886350061162e+04  1.341425764472216144e+02
1.712500000000000000e+01  1.973562889428119524e+04  1.353439043084909770e+02
1.725000000000000000e+01  1.969351289042450662e+04  1.345969267024773899e+02
1.737500000000000000e+01  1.957023522065830184e+04  1.318017857837553493e+02
1.750000000000000000e+01  1.960201345920831591e+04  1.305669806708445151e+02
1.762500000000000000e+01  1.968382504153312038e+04  1.354608989312783649e+02
1.775000000000000000e+01  1.949524609390040132e+04  1.304416547965885798e+02
1.787500000000000000e+01  1.923188834338714878e+04  1.343967490958391409e+02
1.800000000000000000e+01  1.943827193466118842e+04  1.315590832911255177e+02
1.812500000000000000e+01  1.961932894830088117e+04  1.360192227359632966e+02
1.825000000000000000e+01  1.979350897476625323e+04  1.337124581810958261e+02
1.837500000000000000e+01  1.995924725510152712e+04  1.377876737043007722e+02
1.850000000000000000e+01  1.993217091379157864e+04  1.356118278520771980e+02
1.862500000000000000e+01  2.005622991879881010e+04  1.370855514847160634e+02
1.875000000000000000e+01  1.970790955761383157e+04  1.290222397410977351e+02
1.887500000000000000e+01  1.985003468014739701e+04  1.365207001020806672e+02
1.900000000000000000e+01  1.957005949735882677e+04  1.310361221556072167e+02
1.912500000000000000e+01  1.963460198019966992e+04  1.360368661137620165e+02
1.925000000000000000e+01  1.951256494437219226e+04  1.340191680501922633e+02
1.937500000000000000e+01  1.962781286276070023e+04  1.355222400368337503e+02
1.950000000000000000e+01  1.951462942966275295e+04  1.329712105140315259e+02
1.962500000000000000e+01  1.946045541271554612e+04  1.356302202891028230e+02
1.975000000000000000e+01  1.946002455609315439e+04  1.356535771157258239e+02
1.987500000000000000e+01  1.959439884186131167e+04  1.356606748921769849e+02
2.000000000000000000e+01  1.927695749031236483e+04  1.351679388900575134e+02
2.012500000000000000e+01  1.977705537068457852e+04  1.316803462026784644e+02
2.025000000000000000e+01  1.954244460497428736e+04  1.352070306219344218e+02
2.037500000000000000e+01  1.994124418278214216e+04  1.324977677181099409e+02
2.050000000000000000e+01  1.995571335508839184e+04  1.374785646683087066e+02
2.062500000000000000e+01  2.014386247853888563e+04  1.378714435585032163e+02
2.075000000000000000e+01  2.105266844471057266e+04  1.400991710099639533e+02
2.087500000000000000e+01  2.232301681501980056e+04  1.435541519358166340e+02
2.100000000000000000e+01  2.442367374584513163e+04  1.528421220870100683e+02
2.112500000000000000e+01  2.578351128426611467e+04  1.553110851462280948e+02
2.125000000000000000e+01  2.676535240226558381e+04  1.600450551124783658e+02
2.137500000000000000e+01  2.600800611575349467e+04  1.573816738143082432e+02
2.150000000000000000e+01  2.510431438200105913e+04  1.515611765069492378e+02
2.162500000000000000e+01  2.372230773785288329e+04  1.442145533622924916e+02
2.175000000000000000e+01  2.201250283543648766e+04  1.458101424857303243e+02
2.187500000000000000e+01  2.158819624773335454e+04  1.397213774013183922e+02
2.200000000000000000e+01  2.044728767123426587e+04  1.412882000628368644e+02
2.212500000000000000e+01  1.997968503358611633e+04  1.364954225434169928e+02
2.225000000000000000e+01  1.999676743724641710e+04  1.386993207794750163e+02
2.237500000000000000e+01  1.978856031389009149e+04  1.363399589829713250e+02
2.250000000000000000e+01  1.955107673499173325e+04  1.387718456486018681e+02
2.262500000000000000e+01  1.934733128726595169e+04  1.346848762570541851e+02
2.275000000000000000e+01  1.950132662519823498e+04  1.384570943638085794e+02
2.287500000000000000e+01  1.927554678215656531e+04  1.320180997931887248e+02
2.300000000000000000e+01  1.964918404635560728e+04  1.364460869925797226e+02
2.312500000000000000e+01  1.936239750068606008e+04  1.328968911953357974e+02
2.325000000000000000e+01  1.924069011195421990e+04  1.335322145611575593e+02
2.337500000000000000e+01  1.953169184666503861e+04  1.358104217173964514e+02
2.350000000000000000e+01  1.936460146606115813e+04  1.357991819540352196e+02
2.362500000000000000e+01  1.925268514992667770e+04  1.362119794577295409e+02
2.375000000000000000e+01  1.950478651010169051e+04  1.355676376820730127e+02
2.387500000000000000e+01  1.972524367399065522e+04  1.412481605802761351e+02
2.400000000000000000e+01  1.918176980460103368e+04  1.331906778181888455e+02
2.412500000000000000e+01  1.928501115516024220e+04  1.376798527673363708e+02
2.425000000000000000e+01  1.935141196664902236e+04  1.358135955304607307e+02
2.437500000000000000e+01  1.923887181125911229e+04  1.324961006377862702e+02
2.450000000000000000e+01  1.926750954152055419e+04  1.336089891790563513e+02
2.462500000000000000e+01  1.961858587049377456e+04  1.377124395857225920e+02
2.475000000000000000e+01  1.925055341119001241e+04  1.369495906378816414e+02
2.487500000000000000e+01  1.913471851904538198e+04  1.346180818278650406e+02
2.500000000000000000e+01  1.964609696197060111e+04  1.374558913959570532e+02
2.512500000000000000e+01  1.945125132717660381e+04  1.375376787611145062e+02
2.525000000000000000e+01  1.923391077644670804e+04  1.366998083003319948e+02
2.537500000000000000e+01  1.922380631782631099e+04  1.350611303323966297e+02
2.550000000000000000e+01  1.952503583079819873e+04  1.383780213005024677e+02
2.562500000000000000e+01  1.957783266954825740e+04  1.396956280320170549e+02
2.575000000000000000e+01  1.990489100451063132e+04  1.355674946045342324e+02
2.587500000000000000e+01  2.024764185872771122e+04  1.354789274906736978e+02
2.600000000000000000e+01  2.034253327999113390e+04  1.415066411870003549e+02
2.612500000000000000e+01  2.049450774306286257e+04  1.394539188494663620e+02
2.625000000000000000e+01  2.084780553782549759e+04  1.437437892736291474e+02
2.637500000000000000e+01  2.039334322644331769e+04  1.407810791107430077e+02
2.650000000000000000e+01  2.030772228105843169e+04  1.390059798355879366e+02
2.662500000000000000e+01  1.995383323597671188e+04  1.415770911378561721e+02
2.675000000000000000e+01  1.987851624282247940e+04  1.398959206182372554e+02
2.687500000000000000e+01  1.967827306907812817e+04  1.392752925763805649e+02
2.700000000000000000e+01  2.003142100515445054e+04  1.392683739507150449e+02
2.712500000000000000e+01  2.028656898002259550e+04  1.376698012029821712e+02
2.725000000000000000e+01  2.090773323453576813e+04  1.407872302801728779e+02
2.737500000000000000e+01  2.108579812937241149e+04  1.396624873366960458e+02
2.750000000000000000e+01  2.124075623418878240e+04  1.480632539887631367e+02
2.762500000000000000e+01  2.122700493362164343e+04  1.424823751686543858e+02
2.775000000000000000e+01  2.079794339668637258e+04  1.422516038019722089e+02
2.787500000000000000e+01  2.054818185899659511e+04  1.431451219890406890e+02
2.800000000000000000e+01  2.006300000000000000e+04  1.416439197424301710e+02
2.812500000000000000e+01  1.955803448405570089e+04  1.399253072709136063e+02
2.825000000000000000e+01  1.952036452091953106e+04  1.398097446473130390e+02
2.837500000000000000e+01  1.935437855824697908e+04  1.375351601721897055e+02
2.850000000000000000e+01  1.942227673196271280e+04  1.361367105615181572e+02
2.862500000000000000e+01  1.918120985570553967e+04  1.357504692764305219e+02
2.875000000000000000e+01  1.958447399681543902e+04  1.374967058918468865e+02
2.887500000000000000e+01  1.906383056142833084e+04  1.374739866992039197e+02
2.900000000000000000e+01  1.949556095143747370e+04  1.398474773068426487e+02
2.912500000000000000e+01  1.909018243623504895e+04  1.244115587485917018e+02
2.925000000000000000e+01  1.928512645895405149e+04  1.422491688404245167e+02
2.937500000000000000e+01  1.901821306073990127e+04  1.425755708500986145e+02
2.950000000000000000e+01  1.943523616586039498e+04  1.401231404189155398e+02
2.962500000000000000e+01  1.957821665729819142e+04  1.422300760249993061e+02
2.975000000000000000e+01  1.921389728730513889e+04  1.383010761236751023e+02
2.987500000000000000e+01  1.936970441623783699e+04  1.373945242878073429e+02
3.000000000000000000e+01  1.949457324292035628e+04  1.395248544816019489e+02
3.012500000000000000e+01  1.952678452848691450e+04  1.372778893372938285e+02
3.025000000000000000e+01  2.002690533990048789e+04  1.410870317331412025e+02
3.037500000000000000e+01  2.057748548971909258e+04  1.430510563760758203e+02
3.050000000000000000e+01  2.072553167085168025e+04  1.449692387776267992e+02
3.062500000000000000e+01  2.155420297358436801e+04  1.468994058908611748e+02
3.075000000000000000e+01  2.123793900053099060e+04  1.464128454253908558e+02
3.087500000000000000e+01  2.092431522537293131e+04  1.449099559415168414e+02
3.100000000000000000e+01  2.064176107598147064e+04  1.458754380488892934e+02
3.112500000000000000e+01  2.051942142095521922e+04  1.430663208696065851e+02
3.125000000000000000e+01  1.976617103655568280e+04  1.386255169883094425e+02
3.137500000000000000e+01  1.973696568535042752e+04  1.364907969781034751e+02
3.150000000000000000e+01  1.954933968234455824e+04  1.394107167554995499e+02
3.162500000000000000e+01  1.913091981922259220e+04  1.387756725192801071e+02
3.175000000000000000e+01  1.916682070997385017e+04  1.361748424279471692e+02
3.187500000000000000e+01  1.918119780865020221e+04  1.399118693028979123e+02
3.200000000000000000e+01  1.925759378029802247e+04  1.396945653014902007e+02
3.212500000000000000e+01  1.926931316548080940e+04  1.388078761404196371e+02
3.225000000000000000e+01  1.916891860011083918e+04  1.412690842912832068e+02
3.237500000000000000e+01  1.936003170213275007e+04  1.399853653793655610e+02
3.250000000000000000e+01  1.918949936405116023e+04  1.393546848331430112e+02
3.262500000000000000e+01  1.883022081889033143e+04  1.350956501007576094e+02
3.275000000000000000e+01  1.952984606928132780e+04  1.392823285120803973e+02
3.287500000000000000e+01  1.917643879685479260e+04  1.375583188475256975e+02
3.300000000000000000e+01  1.915959918697389003e+04  1.388595515266724760e+02
3.312500000000000000e+01  1.939279432302223722e+04  1.398680475553946962e+02
3.325000000000000000e+01  1.901932870180605823e+04  1.386021682148127070e+02
3.337500000000000000e+01  1.920836267512345876e+04  1.394218375982649434e+02
3.350000000000000000e+01  1.918661747129483047e+04  1.413342868857684778e+02
3.362500000000000000e+01  1.922749331083428115e+04  1.399297869243435457e+02
3.375000000000000000e+01  1.940232330514427304e+04  1.420244149779852592e+02
3.387500000000000000e+01  1.941977283502794671e+04  1.408710119962315730e+02
3.400000000000000000e+01  1.927416466513526029e+04  1.390703320043192548e+02
3.412500000000000000e+01  1.948624269418176482e+04  1.358594491560059794e+02
3.425000000000000000e+01  1.967826729819839238e+04  1.426036281518474880e+02
3.437500000000000000e+01  2.022323305791417806e+04  1.429355457977769390e+02
3.450000000000000000e+01  2.107197438035631058e+04  1.453619919479428120e+02
3.462500000000000000e+01  2.233653846004337902e+04  1.522560494045796418e+02
3.475000000000000000e+01  2.319049067324342832e+04  1.541347286799029632e+02
3.487500000000000000e+01  2.406805254820847404e+04  1.564841284049275032e+02
3.500000000000000000e+01  2.457099747784047213e+04  1.617108038177536855e+02
3.512500000000000000e+01  2.421285708297022938e+04  1.592606500825616820e+02
3.525000000000000000e+01  2.393655164651396626e+04  1.575898984051019340e+02
3.537500000000000000e+01  2.220150601612310129e+04  1.503468839617615060e+02
3.550000000000000000e+01  2.142355457730713897e+04  1.442344789918633694e+02
3.562500000000000000e+01  2.020370441493554245e+04  1.396851266676076762e+02
3.575000000000000000e+01  1.966213663495631408e+04  1.439339530990071978e+02
3.587500000000000000e+01  1.937160543569389120e+04  1.402929412520936125e+02
3.600000000000000000e+01  1.931226796552021551e+04  1.414372265587929860e+02
3.612500000000000000e+01  1.915762220537642497e+04  1.402971227951210835e+02
3.625000000000000000e+01  1.919136794245837154e+04  1.430440110018239750e+02
3.637500000000000000e+01  1.905062379291650359e+04  1.408031827294967684e+02
3.650000000000000000e+01  1.892576290139363846e+04  1.418107791603211183e+02
3.662500000000000000e+01  1.932011913589481264e+04  1.436648565603825318e+02
3.675000000000000000e+01  1.929808985333114106e+04  1.428273934819111446e+02
3.687500000000000000e+01  1.912394323055783752e+04  1.349772221060882771e+02
3.700000000000000000e+01  1.897656339815897081e+04  1.384265862429334106e+02
3.712500000000000000e+01  1.901449504045361027e+04  1.394097997910271829e+02
3.725000000000000000e+01  1.925798081337537951e+04  1.413165754930796538e+02
3.737500000000000000e+01  1.914430963306095509e+04  1.418680949353981759e+02
3.750000000000000000e+01  1.909616154253298373e+04  1.403598419519162803e+02
3.762500000000000000e+01  1.914164394611431999e+04  1.429157585425457739e+02
3.775000000000000000e+01  1.915738170849448215e+04  1.416657679288231293e+02
3.787500000000000000e+01  1.904411243812286921e+04  1.447102623313638503e+02
3.800000000000000000e+01  1.921998054654516091e+04  1.413692532154136643e+02
3.812500000000000000e+01  1.907481293037377327e+04  1.427394036999473883e+02
3.825000000000000000e+01  1.952469547325504027e+04  1.350067039221136724e+02
3.837500000000000000e+01  1.978414612931529336e+04  1.427797761680884889e+02
3.850000000000000000e+01  2.039969328548332123e+04  1.459057719138184552e+02
3.862500000000000000e+01  2.123305071879934258e+04  1.479233135095020089e+02
3.875000000000000000e+01  2.142183745225652819e+04  1.515169381684720804e+02
3.887500000000000000e+01  2.170674606029877759e+04  1.504152235831239182e+02
3.900000000000000000e+01  2.189238468110351459e+04  1.522766584432226580e+02
3.912500000000000000e+01  2.177084160207756213e+04  1.521989969703854797e+02
3.925000000000000000e+01  2.165980967350275387e+04  1.507757002125914312e+02
3.937500000000000000e+01  2.067460109925028883e+04  1.508131052001369028e+02
3.950000000000000000e+01  2.003635345349884301e+04  1.468584125763550787e+02
3.962500000000000000e+01  1.960974887266436781e+04  1.376843333120511375e+02
3.975000000000000000e+01  1.955827136112383960e+04  1.404165859842455006e+02
3.987500000000000000e+01  1.883480046093418423e+04  1.394481941405097700e+02
4.000000000000000000e+01  1.904185695012901851e+04  1.408808328324478509e+02
4.012500000000000000e+01  1.899783493542972064e+04  1.410968068747309587e+02
4.025000000000000000e+01  1.877921787616602887e+04  1.415737921411600837e+02
4.037500000000000000e+01  1.954135281046481759e+04  1.439786259280263039e+02
4.050000000000000000e+01  1.917394585276181897e+04  1.415060988478803381e+02
4.062500000000000000e+01  1.920954213461779727e+04  1.453559180619771780e+02
4.075000000000000000e+01  1.904694559336080056e+04  1.413485427296695320e+02
4.087500000000000000e+01  1.910292693038070502e+04  1.442110292438634076e+02
4.100000000000000000e+01  1.915488142749699909e+04  1.380193736972516660e+02
4.112500000000000000e+01  1.898206216032775410e+04  1.400632754243114277e+02
4.125000000000000000e+01  1.917619904029423560e+04  1.401703024940399303e+02
4.137500000000000000e+01  1.923347789862398349e+04  1.416641014165776653e+02
4.150000000000000000e+01  1.921277512848254264e+04  1.428350555709745038e+02
4.162500000000000000e+01  1.933317980107273979e+04  1.434253195974456787e+02
4.175000000000000000e+01  1.945973176264734866e+04  1.447390384815955429e+02
4.187500000000000000e+01  1.969830227704974459e+04  1.446997070228497364e+02
4.200000000000000000e+01  2.009015712410470587e+04  1.474430005005213502e+02
4.212500000000000000e+01  2.045892982643831419e+04  1.477342717188981851e+02
4.225000000000000000e+01  2.163436355975339757e+04  1.521209826642438259e+02
4.237500000000000000e+01  2.243344067608343903e+04  1.489287826712776734e+02
4.250000000000000000e+01  2.390659768997802166e+04  1.558533128831708154e+02
4.262500000000000000e+01  2.464720222239691429e+04  1.587962398569038953e+02
4.275000000000000000e+01  2.524052715138972781e+04  1.615693638261560352e+02
4.287500000000000000e+01  2.507134124933162093e+04  1.601618498700257192e+02
4.300000000000000000e+01  2.469797929122099958e+04  1.607361007156024755e+02
4.312500000000000000e+01  2.372651401650833213e+04  1.570810147854591889e+02
4.325000000000000000e+01  2.255448904353397666e+04  1.533077925177600207e+02
4.337500000000000000e+01  2.151705739756494222e+04  1.503550094272497688e+02
4.350000000000000000e+01  2.044062813839177397e+04  1.445876822315713355e+02
4.362500000000000000e+01  1.976977617008786183e+04  1.450956109669149043e+02
4.375000000000000000e+01  1.995697851864858967e+04  1.345346345664314640e+02
4.387500000000000000e+01  1.963816240391906103e+04  1.310813913084886622e+02
4.400000000000000000e+01  1.964399829430670798e+04  1.484989121487108150e+02
4.412500000000000000e+01  2.004930072250275771e+04  1.418089678190774237e+02
4.425000000000000000e+01  1.973886362554343214e+04  1.444956224266915967e+02
4.437500000000000000e+01  1.986222243199395598e+04  1.423385576458736068e+02
4.450000000000000000e+01  2.002112216303194873e+04  1.414893794677712151e+02
4.462500000000000000e+01  2.030136769578844905e+04  1.432910796201558412e+02
4.475000000000000000e+01  2.007385848804297711e+04  1.429659016288698012e+02
4.487500000000000000e+01  2.023807242839130413e+04  1.430797457576175873e+02
4.500000000000000000e+01  2.060917034928089561e+04  1.444134486681383294e+02
4.512500000000000000e+01  2.062093815068889671e+04  1.398294847936696215e+02
4.525000000000000000e+01  2.052481228762499813e+04  1.413824171313056013e+02
4.537500000000000000e+01  2.046543435011796464e+04  1.429158806730416131e+02
4.550000000000000000e+01  2.042638786685736704e+04  1.426571224792303667e+02
4.562500000000000000e+01  2.063076441060478464e+04  1.466609078119463163e+02
4.575000000000000000e+01  2.163773947236223103e+04  1.484441469879214992e+02
4.587500000000000000e+01  2.201221158595743691e+04  1.510594058462116323e+02
4.600000000000000000e+01  2.340980798735648568e+04  1.566758710065164735e+02
4.612500000000000000e+01  2.439102652203859907e+04  1.620639382829344015e+02
4.625000000000000000e+01  2.570124957716348217e+04  1.625847473323820509e+02
4.637500000000000000e+01  2.629307373630471193e+04  1.699975319736501547e+02
4.650000000000000000e+01  2.727628605445210269e+04  1.689266083921393715e+02
4.662500000000000000e+01  2.704120940738234640e+04  1.638169349929034411e+02
4.675000000000000000e+01  2.673444922335774754e+04  1.691918205096652912e+02
4.687500000000000000e+01  2.577151181902844837e+04  1.638939655991411541e+02
4.700000000000000000e+01  2.429840084145893343e+04  1.630471418203052849e+02
4.712500000000000000e+01  2.283547430955565869e+04  1.568827896913618076e+02
4.725000000000000000e+01  2.121059707826533122e+04  1.527445043129450539e+02
4.737500000000000000e+01  2.044682992963731158e+04  1.484580549991407565e+02
4.750000000000000000e+01  2.013105504685677079e+04  1.517004462759312844e+02
4.762500000000000000e+01  1.986210328580311034e+04  1.482494222390129437e+02
4.775000000000000000e+01  1.947071447172759508e+04  1.496684909243811603e+02
4.787500000000000000e+01  1.919425983073255702e+04  1.438791850608835716e+02
4.800000000000000000e+01  1.924983525214438123e+04  1.395501943361714439e+02
4.812500000000000000e+01  1.932413834924087132e+04  1.428793749846676633e+02
4.825000000000000000e+01  1.931694936152717128e+04  1.445108879026001318e+02
4.837500000000000000e+01  1.957802207682940571e+04  1.471574253020051799e+02
4.850000000000000000e+01  1.977970901138873160e+04  1.461200313257542689e+02
4.862500000000000000e+01  1.956016603434307035e+04  1.471646235642032252e+02
4.875000000000000000e+01  1.956893186568820602e+04  1.484114073762794987e+02
4.887500000000000000e+01  1.956644938880842528e+04  1.495627948546064658e+02
4.900000000000000000e+01  2.010235064421331845e+04  1.507370144845881441e+02
4.912500000000000000e+01  2.023159323286973813e+04  1.509442152666907475e+02
4.925000000000000000e+01  2.130644798303480638e+04  1.557415654989827658e+02
4.937500000000000000e+01  2.345118071972201506e+04  1.532331484854639427e+02
4.950000000000000000e+01  2.647518810315373412e+04  1.681006677949170864e+02
4.962500000000000000e+01  2.949943579648997911e+04  1.798812966710725618e+02
4.975000000000000000e+01  3.279114545016767079e+04  1.872435126545265121e+02
4.987500000000000000e+01  3.618660431716666062e+04  2.031481143948900581e+02
5.000000000000000000e+01  3.795299152071977733e+04  2.065807375888840340e+02
5.012500000000000000e+01  3.852216874548811757e+04  2.079486340527437562e+02
5.025000000000000000e+01  3.841727904699948704e+04  2.095678472903578609e+02
5.037500000000000000e+01  3.718167253237048863e+04  2.053264833302883687e+02
5.050000000000000000e+01  3.432521278925407387e+04  1.975488423915878116e+02
5.062500000000000000e+01  3.132637480590947598e+04  1.884704536543817710e+02
5.075000000000000000e+01  2.702853370140738843e+04  1.661981050427067146e+02
5.087500000000000000e+01  2.377494894523564653e+04  1.603380526962575630e+02
5.100000000000000000e+01  2.172459923525974591e+04  1.513440892078487252e+02
5.112500000000000000e+01  2.072384255988861332e+04  1.533123854242260222e+02
5.125000000000000000e+01  2.028158513516328094e+04  1.501927644669040660e+02
5.137500000000000000e+01  2.009297104490858328e+04  1.535560429397017970e+02
5.150000000000000000e+01  1.999744207502324207e+04  1.495096680329468199e+02
5.162500000000000000e+01  1.990151420331941335e+04  1.514836375457296924e+02
5.175000000000000000e+01  1.957421771811863437e+04  1.480179353971674061e+02
5.187500000000000000e+01  1.967326832520874450e+04  1.501907491738718363e+02
5.200000000000000000e+01  1.957449909720489086e+04  1.491761195044783506e+02
5.212500000000000000e+01  1.950339312475809857e+04  1.417014623903480128e+02
5.225000000000000000e+01  1.940753070813207160e+04  1.451641599452530613e+02
5.237500000000000000e+01  1.909326487870036726e+04  1.449457307164991562e+02
5.250000000000000000e+01  1.923327649808457136e+04  1.472658167411184991e+02
5.262500000000000000e+01  1.897870683304171325e+04  1.449728070272789751e+02
5.275000000000000000e+01  1.928027735189164378e+04  1.491193856632549739e+02
5.287500000000000000e+01  1.894701945271013392e+04  1.436369837875097630e+02
5.300000000000000000e+01  1.915551745424947876e+04  1.492476628498685329e+02
5.312500000000000000e+01  1.939056600694703957e+04  1.470586749785511529e+02
5.325000000000000000e+01  1.955119062910895809e+04  1.515823914189901984e+02
5.337500000000000000e+01  1.954825704646404120e+04  1.482375573442737391e+02
5.350000000000000000e+01  1.987008262091294819e+04  1.447827631066660956e+02
5.362500000000000000e+01  1.965423068355447685e+04  1.439339384655173433e+02
5.375000000000000000e+01  1.970436532174913373e+04  1.474256651047579965e+02
5.387500000000000000e+01  1.996525769745280195e+04  1.495283728601388589e+02
5.400000000000000000e+01  1.976652409177102527e+04  1.457524376810250430e+02
5.412500000000000000e+01  1.967729431260711863e+04  1.492847594999472562e+02
5.425000000000000000e+01  1.929367331433139407e+04  1.461222664691018167e+02
5.437500000000000000e+01  1.950172342993552593e+04  1.496859004177978818e+02
5.450000000000000000e+01  1.918726155328745517e+04  1.448146766305216602e+02
5.462500000000000000e+01  1.953213906013954329e+04  1.512348167587004752e+02
5.475000000000000000e+01  1.922702257582863240e+04  1.461718967249713330e+02
5.487500000000000000e+01  1.910810719124066600e+04  1.407368665201616977e+02
5.500000000000000000e+01  1.911352624904238473e+04  1.428412541448198851e+02
5.512500000000000000e+01  1.916338268651411636e+04  1.447458064001691298e+02
5.525000000000000000e+01  1.894723824502674324e+04  1.437916056873310140e+02
5.537500000000000000e+01  1.916545493343909766e+04  1.440970919000332628e+02
5.550000000000000000e+01  1.914030669309124642e+04  1.464081170728340453e+02
5.562500000000000000e+01  1.898677203617200212e+04  1.429274657331593801e+02
5.575000000000000000e+01  1.885765189359963551e+04  1.464962002551886258e+02
5.587500000000000000e+01  1.884394383036573345e+04  1.435294300269629844e+02
5.600000000000000000e+01  1.918745854669496475e+04  1.478322055726027031e+02
5.612500000000000000e+01  1.982172929033943365e+04  1.459019124201874149e+02
5.625000000000000000e+01  2.139587669316553001e+04  1.478604821028404785e+02
5.637500000000000000e+01  2.332439162435589606e+04  1.525349965868322499e+02
5.650000000000000000e+01  2.535725923158416117e+04  1.637452331703244681e+02
5.662500000000000000e+01  2.791235441594839358e+04  1.730318832696294464e+02
5.675000000000000000e+01  3.014056349668844268e+04  1.807060964950898665e+02
5.687500000000000000e+01  3.210231448775828540e+04  1.872882144484933065e+02
5.700000000000000000e+01  3.324669464842020534e+04  1.898695482575076312e+02
5.712500000000000000e+01  3.441825589209254395e+04  2.002856260749720150e+02
5.725000000000000000e+01  3.386333621786751610e+04  1.951169728819473903e+02
5.737500000000000000e+01  3.282405294299434172e+04  1.942693827974269141e+02
5.750000000000000000e+01  3.156035008337162799e+04  1.884342731819313030e+02
5.762500000000000000e+01  2.909698417708227134e+04  1.800609733678552118e+02
5.775000000000000000e+01  2.644791620579322989e+04  1.656980191819027937e+02
5.787500000000000000e+01  2.402084163307447307e+04  1.638360214998034792e+02
5.800000000000000000e+01  2.166424450634425011e+04  1.541753629603930733e+02
5.812500000000000000e+01  2.019960346595511146e+04  1.527295631851263806e+02
5.825000000000000000e+01  1.929838517088737353e+04  1.493666956346264669e+02
5.837500000000000000e+01  1.915322470139068901e+04  1.505609639716937522e+02
5.850000000000000000e+01  1.935853954072058332e+04  1.457012673103776592e+02
5.862500000000000000e+01  1.903443747153926597e+04  1.885429678660657942e+02
5.875000000000000000e+01  1.878464942345439704e+04  1.427057283807646400e+02
5.887500000000000000e+01  1.920461248869634073e+04  1.418677094208405549e+02
5.900000000000000000e+01  1.888959764134046054e+04  1.422362683654920943e+02
5.912500000000000000e+01  1.922481123736488735e+04  1.410503907907555572e+02
5.925000000000000000e+01  1.908423343276792730e+04  1.450067567822997603e+02
5.937500000000000000e+01  1.932804682757797127e+04  1.480478846261626131e+02
5.950000000000000000e+01  1.966712473595790289e+04  1.488183815939484020e+02
5.962500000000000000e+01  2.019981730195639466e+04  1.542555164251402573e+02
5.975000000000000000e+01  2.094473891053541229e+04  1.563519203227253058e+02
5.987500000000000000e+01  2.208467455176285512e+04  1.622689180104100330e+02
6.000000000000000000e+01  2.358373154434723983e+04  1.646155812078891643e+02
6.012500000000000000e+01  2.511450571337170550e+04  1.752705733323223569e+02
6.025000000000000000e+01  2.647541967655640838e+04  1.748018989652474602e+02
6.037500000000000000e+01  2.780777183766960297e+04  1.841372408938252931e+02
6.050000000000000000e+01  2.908334037313760564e+04  1.675528916428629032e+02
6.062500000000000000e+01  2.951168404968175673e+04  1.816765960374119118e+02
6.075000000000000000e+01  2.990277186978015015e+04  1.860259780745699061e+02
6.087500000000000000e+01  2.941523362745417398e+04  1.825203295807481254e+02
6.100000000000000000e+01  2.915206608320189116e+04  1.847845326675728188e+02
6.112500000000000000e+01  2.822423978581860865e+04  1.802371489975850807e+02
6.125000000000000000e+01  2.628825433392194100e+04  1.800987864666053326e+02
6.137500000000000000e+01  2.510565510252860986e+04  1.698733912544082898e+02
6.150000000000000000e+01  2.323054225272650001e+04  1.672994718777736978e+02
6.162500000000000000e+01  2.170718831594788935e+04  1.589428040438601499e+02
6.175000000000000000e+01  2.036785841726125000e+04  1.560034221702455568e+02
6.187500000000000000e+01  1.956263116471760804e+04  1.402961097467038769e+02
6.200000000000000000e+01  1.934981408617093257e+04  1.474552443308952832e+02
6.212500000000000000e+01  1.921879929424980583e+04  1.489292527177174748e+02
6.225000000000000000e+01  1.928800085983031386e+04  1.486686355197718683e+02
6.237500000000000000e+01  1.877784524850768867e+04  1.504733583262277534e+02
6.250000000000000000e+01  1.940763171247705395e+04  1.491439318278144981e+02
6.262500000000000000e+01  1.977622371681256482e+04  1.527223976856559773e+02
6.275000000000000000e+01  2.034947190816466173e+04  1.533332975904335171e+02
6.287500000000000000e+01  2.125939581902666396e+04  1.610883903877475518e+02
6.300000000000000000e+01  2.248883811678156053e+04  1.622527372625687008e+02
6.312500000000000000e+01  2.407328255925687336e+04  1.697154285817846926e+02
6.325000000000000000e+01  2.633890009503283000e+04  1.644608067060951839e+02
6.337500000000000000e+01  2.795815103743099462e+04  1.771562402827616154e+02
6.350000000000000000e+01  2.942884454092786473e+04  1.830245461416934063e+02
6.362500000000000000e+01  3.084207302916685876e+04  1.896510945635882308e+02
6.375000000000000000e+01  3.152628953335654660e+04  1.923515116572194472e+02
6.387500000000000000e+01  3.186844306920525923e+04  1.922928510972027141e+02
6.400000000000000000e+01  3.151505468820596434e+04  1.944077829917670499e+02
6.412500000000000000e+01  3.091860407601617408e+04  1.901540496535535567e+02
6.425000000000000000e+01  3.051958231379810604e+04  1.928878124529331330e+02
6.437500000000000000e+01  2.863159722153889015e+04  1.800159826806882961e+02
6.450000000000000000e+01  2.721214668627722858e+04  1.854990414803376098e+02
6.462500000000000000e+01  2.465697429736105187e+04  1.608991488120164775e+02
6.475000000000000000e+01  2.241859727085504346e+04  1.575107327787758038e+02
6.487500000000000000e+01  2.113932534151819345e+04  1.549718951066217585e+02
6.500000000000000000e+01  2.035337758867766388e+04  1.534716849003128232e+02
6.512500000000000000e+01  1.962717569496786018e+04  1.515939738559933403e+02
6.525000000000000000e+01  1.904130234957533321e+04  1.477179960376896304e+02
6.537500000000000000e+01  1.891728987924869580e+04  1.494329429585500861e+02
6.550000000000000000e+01  1.870820633683494088e+04  1.497375419728762154e+02
6.562500000000000000e+01  1.900095649162606060e+04  1.504368672389738322e+02
6.575000000000000000e+01  1.920884200975614658e+04  1.505384046873858495e+02
6.587500000000000000e+01  1.925248913192646432e+04  1.575270704321088715e+02
6.600000000000000000e+01  1.978877852589149916e+04  1.447485884381281949e+02
6.612500000000000000e+01  2.028450530332363633e+04  1.488012252231684158e+02
6.625000000000000000e+01  2.143610510759467070e+04  1.564470833862567929e+02
6.637500000000000000e+01  2.251162891913366184e+04  1.626077270918732154e+02
6.650000000000000000e+01  2.368222232996831372e+04  1.661715997561220775e+02
6.662500000000000000e+01  2.496615136358770906e+04  1.707449032297371048e+02
6.675000000000000000e+01  2.578026377268697615e+04  1.750320336008618369e+02
6.687500000000000000e+01  2.685788830451055765e+04  1.781247976925302794e+02
6.700000000000000000e+01  2.777312259977631402e+04  1.847032044277592036e+02
6.712500000000000000e+01  2.774005047601015758e+04  1.810833250122785785e+02
6.725000000000000000e+01  2.841700724539651492e+04  1.902218632324976966e+02
6.737500000000000000e+01  2.827201178537639134e+04  1.709222757760076661e+02
6.750000000000000000e+01  2.781904504553626975e+04  1.736250427523885946e+02
6.762500000000000000e+01  2.677138081655398855e+04  1.742963899629783384e+02
6.775000000000000000e+01  2.610253793607943953e+04  1.728910308059478496e+02
6.787500000000000000e+01  2.479234410392596328e+04  1.709288480021880048e+02
6.800000000000000000e+01  2.340747397707156415e+04  1.651200221509538437e+02
6.812500000000000000e+01  2.210423849621507907e+04  1.612374594509234100e+02
6.825000000000000000e+01  2.088547784254179351e+04  1.583915792403833223e+02
6.837500000000000000e+01  1.981552908947240212e+04  1.593267110268504041e+02
6.850000000000000000e+01  1.981945751781153740e+04  1.516385743547990614e+02
6.862500000000000000e+01  1.927931262592529674e+04  1.533973945553802025e+02
6.875000000000000000e+01  1.889058003440342145e+04  1.435975213021813772e+02
6.887500000000000000e+01  1.905087196713667436e+04  1.433571995979638132e+02
6.900000000000000000e+01  1.917247573719079810e+04  1.470375273875685025e+02
6.912500000000000000e+01  1.920731535373221050e+04  1.478755095568489253e+02
6.925000000000000000e+01  1.911594413380250990e+04  1.479457660533791739e+02
6.937500000000000000e+01  1.935771241355470193e+04  1.492636124827786261e+02
6.950000000000000000e+01  1.933849353962368332e+04  1.527792156246383115e+02
6.962500000000000000e+01  1.927151985294926635e+04  1.526891153329410145e+02
6.975000000000000000e+01  1.963627556932056541e+04  1.566846030435392834e+02
6.987500000000000000e+01  1.993911154307040124e+04  1.512362604082103132e+02
7.000000000000000000e+01  1.984999240443870804e+04  1.588151862252779551e+02
7.012500000000000000e+01  2.004428108575011720e+04  1.465038919794061769e+02
7.025000000000000000e+01  2.006407546533235654e+04  1.457635460674050023e+02
7.037500000000000000e+01  2.000412495858226612e+04  1.486197124178633544e+02
7.050000000000000000e+01  2.005222909083879495e+04  1.512912659836863725e+02
7.062500000000000000e+01  2.007585409245671326e+04  1.501966913599193276e+02
7.075000000000000000e+01  2.032249895363996256e+04  1.539450731295661399e+02
7.087500000000000000e+01  2.018700640443965676e+04  1.563334896430714025e+02
7.100000000000000000e+01  2.000296690910870529e+04  1.536146771872787156e+02
7.112500000000000000e+01  1.986794314990146449e+04  1.542702126310465189e+02
7.125000000000000000e+01  1.998188929488641952e+04  1.522101115462700136e+02
7.137500000000000000e+01  1.992286821572027839e+04  1.576717180059889927e+02
7.150000000000000000e+01  1.946693061181932353e+04  1.464590039938611596e+02
7.162500000000000000e+01  1.945160996420096126e+04  1.386855760695021900e+02
7.175000000000000000e+01  1.954686050423806955e+04  1.450304894189989113e+02
7.187500000000000000e+01  1.926375131997690914e+04  1.466844516034311994e+02
7.200000000000000000e+01  1.937740448542816375e+04  1.491319836631880662e+02
7.212500000000000000e+01  1.933956760721499450e+04  1.487527023541843789e+02
7.225000000000000000e+01  1.943462155136801448e+04  1.515004590381692822e+02
7.237500000000000000e+01  1.961359000036585348e+04  1.509810127745983550e+02
7.250000000000000000e+01  1.984666284435720081e+04  1.530884380195771541e+02
7.262500000000000000e+01  1.960920886466868615e+04  1.499729097940651172e+02
7.275000000000000000e+01  1.971845542595844017e+04  1.555094841984740412e+02
7.287500000000000000e+01  2.032597602602043480e+04  1.515977654312526113e+02
7.300000000000000000e+01  2.031161969427530494e+04  1.387307334126474814e+02
7.312500000000000000e+01  2.093704858155017428e+04  1.318517731302104607e+02
7.325000000000000000e+01  2.133191344868651868e+04  1.453000867748179701e+02
7.337500000000000000e+01  2.114069350557463258e+04  2.028917139991872318e+02
7.350000000000000000e+01  2.157239879064099296e+04  1.564779247146232990e+02
7.362500000000000000e+01  2.149321458741499009e+04  1.584888457412231162e+02
7.375000000000000000e+01  2.176116746061429149e+04  1.581303145851426848e+02
7.387500000000000000e+01  2.147079056510225928e+04  1.572118695330344735e+02
7.400000000000000000e+01  2.161856182317419734e+04  1.565863707386333488e+02
7.412500000000000000e+01  2.136821308529286398e+04  1.609501267214225209e+02
7.425000000000000000e+01  2.134180023359978804e+04  1.535858335801090959e+02
7.437500000000000000e+01  2.086220302959674882e+04  1.398259674224755145e+02
7.450000000000000000e+01  2.087129710815646467e+04  1.469991921306874758e+02
7.462500000000000000e+01  2.048930919100692336e+04  1.505427794174004532e+02
7.475000000000000000e+01  2.017385622582324504e+04  1.507780578732118215e+02
7.487500000000000000e+01  1.989303859193759126e+04  1.474651153273384807e+02
7.500000000000000000e+01  1.941323810663843688e+04  1.500400786281246042e+02
7.512500000000000000e+01  1.947865281475059601e+04  1.445323704004551644e+02
7.525000000000000000e+01  1.948841937506825343e+04  1.498843139479272395e+02
7.537500000000000000e+01  1.938733982093351733e+04  1.454614258847367410e+02
7.550000000000000000e+01  1.952267055530321159e+04  1.522655052442493115e+02
7.562500000000000000e+01  1.973834596555795724e+04  1.456000865852357435e+02
7.575000000000000000e+01  2.027903393646481709e+04  1.400921473351703526e+02
7.587500000000000000e+01  2.076666793152032187e+04  1.461499458959548008e+02
7.600000000000000000e+01  2.144777670215061153e+04  1.530267366015205539e+02
7.612500000000000000e+01  2.224997468747369567e+04  1.566394769427219842e+02
7.625000000000000000e+01  2.287516636365183876e+04  1.560872187609968478e+02
7.637500000000000000e+01  2.423044458258140367e+04  1.649780793383303319e+02
7.650000000000000000e+01  2.506733519344923479e+04  1.633892160736663755e+02
7.662500000000000000e+01  2.563137629614933030e+04  1.716865908641031524e+02
7.675000000000000000e+01  2.616839541958357222e+04  1.661728273763057473e+02
7.687500000000000000e+01  2.691913519922373598e+04  1.802881180293382783e+02
7.700000000000000000e+01  2.714865766508950765e+04  1.705911457445685926e+02
7.712500000000000000e+01  2.807346167218530900e+04  1.678549712462342711e+02
7.725000000000000000e+01  2.754317263125828686e+04  1.637503132374721986e+02
7.737500000000000000e+01  2.811279824070932227e+04  1.721830093416174350e+02
7.750000000000000000e+01  2.757461680648626862e+04  1.717619646693172228e+02
7.762500000000000000e+01  2.722584300828420237e+04  1.691503003879893754e+02
7.775000000000000000e+01  2.648910214797444132e+04  1.699626448443286222e+02
7.787500000000000000e+01  2.559368083855286022e+04  1.663190136761496660e+02
7.800000000000000000e+01  2.474172170288434791e+04  1.667669671602595827e+02
7.812500000000000000e+01  2.383481975500265617e+04  1.581902864101933801e+02
7.825000000000000000e+01  2.313585220116352502e+04  1.669512413547807625e+02
7.837500000000000000e+01  2.224967525879039022e+04  1.560813952869091565e+02
7.850000000000000000e+01  2.140058120543989571e+04  1.440439050381997106e+02
7.862500000000000000e+01  2.100130940544716213e+04  1.427834793386465719e+02
7.875000000000000000e+01  2.070982184310667435e+04  1.466312993782365197e+02
7.887500000000000000e+01  2.047762476422328109e+04  1.472220174649151545e+02
7.900000000000000000e+01  2.051612785241750316e+04  1.465325565772250513e+02
7.912500000000000000e+01  1.984732999087203279e+04  1.454729466169186196e+02
7.925000000000000000e+01  2.004820280600847764e+04  1.450523132261533021e+02
7.937500000000000000e+01  1.997371545064439852e+04  1.475170059827918010e+02
7.950000000000000000e+01  1.978848290305488626e+04  1.466900544110305020e+02
7.962500000000000000e+01  1.961638362292040620e+04  1.521701850591630887e+02
7.975000000000000000e+01  1.958637617451857659e+04  1.477092194681217734e+02
7.987500000000000000e+01  1.970984844682670155e+04  1.385614476504075014e+02
8.000000000000000000e+01  1.972326502550890291e+04  1.359384910495975589e+02
8.012500000000000000e+01  1.978988083041166101e+04  1.421857092968261043e+02
8.025000000000000000e+01  1.968109039508522255e+04  1.413274937251185293e+02
8.037500000000000000e+01  1.966481686615817307e+04  1.404593945132985766e+02
8.050000000000000000e+01  1.964420111087782425e+04  1.482465114258328072e+02
8.062500000000000000e+01  1.958118716680237776e+04  1.414846344615931173e+02
8.075000000000000000e+01  1.958154693577499347e+04  1.494992380344519916e+02
8.087500000000000000e+01  1.986173212415807211e+04  1.437520861846593903e+02
8.100000000000000000e+01  1.951221008302310656e+04  1.531889694147295131e+02
8.112500000000000000e+01  1.954698208593844174e+04  1.454523833726791224e+02
8.125000000000000000e+01  1.982917310864852698e+04  1.399861347611970359e+02
8.137500000000000000e+01  1.950338129096020566e+04  1.330924552617489951e+02
8.150000000000000000e+01  1.961128821097632681e+04  1.388046759551936020e+02
8.162500000000000000e+01  1.970861108639160375e+04  1.405465167854569017e+02
8.175000000000000000e+01  1.947433229773588027e+04  1.380117427802004499e+02
8.187500000000000000e+01  1.967076810226885573e+04  1.445754816218669419e+02
8.200000000000000000e+01  1.944173230084496754e+04  1.396266934238956026e+02
8.212500000000000000e+01  1.998802966492086853e+04  1.547461649365189942e+02
8.225000000000000000e+01  1.960378972636090475e+04  1.445839315158391969e+02
8.237500000000000000e+01  1.970946669904920054e+04  1.522977184002104707e+02
8.250000000000000000e+01  1.982284644257432592e+04  1.452505802570639446e+02
8.262500000000000000e+01  1.974069903996664289e+04  1.411166346426685152e+02
8.275000000000000000e+01  1.996098632736079890e+04  1.298661867533071756e+02
8.287500000000000000e+01  2.028285397953844222e+04  1.388617840072091383e+02
8.300000000000000000e+01  2.066247893714246675e+04  1.446060487387172770e+02
8.312500000000000000e+01  2.086447669014920393e+04  1.410051652016856849e+02
8.325000000000000000e+01  2.120975501839347999e+04  1.482040505538552395e+02
8.337500000000000000e+01  2.152815573443440007e+04  1.526704371781070222e+02
8.350000000000000000e+01  2.139385703872513477e+04  1.587170478273634160e+02
8.362500000000000000e+01  2.188473643144188827e+04  1.507930087412652824e+02
8.375000000000000000e+01  2.180953554395151878e+04  1.617252471711728674e+02
8.387500000000000000e+01  2.184612078306625335e+04  1.495783446252552267e+02
8.400000000000000000e+01  2.188220239625825343e+04  1.622373362092364744e+02
8.412500000000000000e+01  2.207362218395192758e+04  1.268305769777757774e+02
8.425000000000000000e+01  2.189471298549270432e+04  1.420686673424417279e+02
8.437500000000000000e+01  2.208142645333123437e+04  1.480741547717000230e+02
8.450000000000000000e+01  2.180196755947625934e+04  1.400846950991654296e+02
8.462500000000000000e+01  2.175999350663238147e+04  1.611630311905552162e+02
8.475000000000000000e+01  2.148251847888903649e+04  1.479338287464559869e+02
8.487500000000000000e+01  2.127678124930794365e+04  1.578094037687943398e+02
8.500000000000000000e+01  2.119254281324063413e+04  1.501469799742033615e+02
8.512500000000000000e+01  2.098122380893252557e+04  1.570801183633047629e+02
8.525000000000000000e+01  2.070457544833448992e+04  1.478898246309606463e+02
8.537500000000000000e+01  2.042994571587235623e+04  1.477562920870636560e+02
8.550000000000000000e+01  2.047022517386414984e+04  1.237374293717637102e+02
8.562500000000000000e+01  2.019340673777790289e+04  1.327365063217223451e+02
8.575000000000000000e+01  2.037520992359832599e+04  1.375949772188984639e+02
8.587500000000000000e+01  2.019068694669511751e+04  1.415853532088861186e+02
8.600000000000000000e+01  2.058049518397758948e+04  1.568883231996556731e+02
8.612500000000000000e+01  2.040477027671590622e+04  1.440280909381948504e+02
8.625000000000000000e+01  2.035432442616240951e+04  1.534308520355468772e+02
8.637500000000000000e+01  2.080177889925984709e+04  1.478056804685111842e+02
8.650000000000000000e+01  2.090172605592863329e+04  1.554730120673805516e+02
8.662500000000000000e+01  2.090062958927531872e+04  1.472350021569611158e+02
8.675000000000000000e+01  2.110195325706443327e+04  1.549521223167582491e+02
8.687500000000000000e+01  2.137769058839337231e+04  1.211886442641082056e+02
8.700000000000000000e+01  2.159692084093190351e+04  1.328217885467046244e+02
8.712500000000000000e+01  2.132639458004814878e+04  1.476626636173288318e+02
8.725000000000000000e+01  2.144310876291885506e+04  1.491480261090595718e+02
8.737500000000000000e+01  2.163645771924535802e+04  1.593243485953921947e+02
8.750000000000000000e+01  2.121332270442651497e+04  1.484175111212540230e+02
8.762500000000000000e+01  2.130755464411297726e+04  1.551662664192651562e+02
8.775000000000000000e+01  2.135957489140913822e+04  1.485957629989064230e+02
8.787500000000000000e+01  2.121302582192562841e+04  1.276874105051483355e+02
8.800000000000000000e+01  2.201073654684092253e+04  4.144126773965399479e+02
8.812500000000000000e+01  2.134271783666596093e+04  1.353681927805950238e+02
8.825000000000000000e+01  2.072724843773434259e+04  1.136768295587212094e+02
8.837500000000000000e+01  2.066618892951056114e+04  1.303503829885084713e+02
8.850000000000000000e+01  2.031322505820683364e+04  1.527871689678440816e+02
8.862500000000000000e+01  2.041703215381635528e+04  1.438461351967371229e+02
8.875000000000000000e+01  1.988785766090779725e+04  1.499444497602362674e+02
8.887500000000000000e+01  2.028761616070487798e+04  1.445799803581755043e+02
8.900000000000000000e+01  1.997516855706462957e+04  1.510541974071084610e+02
8.912500000000000000e+01  1.998169692138918253e+04  1.427482574768249322e+02
8.925000000000000000e+01  1.988219834961520610e+04  1.515122782276810938e+02
8.937500000000000000e+01  2.053451845460502955e+04  1.448753687897184079e+02
8.950000000000000000e+01  2.050176308503445398e+04  1.543537914565708604e+02
8.962500000000000000e+01  2.078021277267072583e+04  1.056235704116467247e+02
8.975000000000000000e+01  2.095343892821789268e+04  1.448236783573513833e+02
8.987500000000000000e+01  2.146412397030542343e+04  1.564683258931101761e+02
9.000000000000000000e+01  2.131968271038842431e+04  1.457145208289159370e+02
9.012500000000000000e+01  2.137889186773868278e+04  1.557435847407294034e+02
9.025000000000000000e+01  2.167158939864457352e+04  1.476069057344454905e+02
9.037500000000000000e+01  2.200388753607697072e+04  1.601267613858699121e+02
9.050000000000000000e+01  2.200330828231831765e+04  1.488001303649056126e+02
9.062500000000000000e+01  2.221211436815445995e+04  1.575327260152798488e+02
9.075000000000000000e+01  2.232557762322998315e+04  1.521954792380369668e+02
9.087500000000000000e+01  2.220101734394864616e+04  1.483268544072595887e+02
9.100000000000000000e+01  2.232764118818133284e+04  1.128623472264889358e+02
9.112500000000000000e+01  2.226584735852850645e+04  1.496240428290757336e+02
9.125000000000000000e+01  2.202325549909834444e+04  1.575543327424956317e+02
9.137500000000000000e+01  2.189475007007099703e+04  1.476781587475899755e+02
9.150000000000000000e+01  2.156572769195305591e+04  1.580129422451648509e+02
9.162500000000000000e+01  2.186866899515143814e+04  1.470380687226418388e+02
9.175000000000000000e+01  2.175666745233787515e+04  1.586093266715661798e+02
9.187500000000000000e+01  2.132685352456948385e+04  1.442783162913740682e+02
9.200000000000000000e+01  2.131940108839931054e+04  1.562500448975459904e+02
9.212500000000000000e+01  2.068573244465118478e+04  1.448432968482683805e+02
9.225000000000000000e+01  2.054247479211779864e+04  1.280906060819386596e+02
9.237500000000000000e+01  2.033319086418478400e+04  1.146118617049289838e+02
9.250000000000000000e+01  2.014224356639721373e+04  1.417448930735374688e+02
9.262500000000000000e+01  2.037112728480998339e+04  1.525467142217324010e+02
9.275000000000000000e+01  2.028250028969763662e+04  1.445068312019879500e+02
9.287500000000000000e+01  2.007772152914431717e+04  1.477501773371731133e+02
9.300000000000000000e+01  1.968523794485733379e+04  1.422996199708363179e+02
9.312500000000000000e+01  2.038155071662113187e+04  1.521138324965016579e+02
9.325000000000000000e+01  2.036654539087750527e+04  1.408345468495505770e+02
9.337500000000000000e+01  2.032211729329784794e+04  1.502336234523309315e+02
9.350000000000000000e+01  2.029409770093240513e+04  1.334329706800021427e+02
9.362500000000000000e+01  2.033160763130317719e+04  1.308073787720283292e+02
9.375000000000000000e+01  2.035247241389014016e+04  1.186234090551798204e+02
9.387500000000000000e+01  2.086646556041798249e+04  1.438245946906048403e+02
9.400000000000000000e+01  2.052783719896784532e+04  1.509889673362503117e+02
9.412500000000000000e+01  2.043113929440722495e+04  1.448652686096376385e+02
9.425000000000000000e+01  2.040214754254381842e+04  1.485728941676637760e+02
9.437500000000000000e+01  2.076151211336462802e+04  1.451889494632207800e+02
9.450000000000000000e+01  2.036316724229278043e+04  1.485057618007881786e+02
9.462500000000000000e+01  2.065676560226604852e+04  1.458358794350577909e+02
9.475000000000000000e+01  2.030115846789406714e+04  1.412154133289143658e+02
9.487500000000000000e+01  2.059318853756443059e+04  1.343065771392192573e+02
9.500000000000000000e+01  2.043304232767426583e+04  1.318288231378558919e+02
9.512500000000000000e+01  2.017563794262241936e+04  1.214738817646898639e+02
9.525000000000000000e+01  2.043369821393327584e+04  1.427569275039089121e+02
9.537500000000000000e+01  2.045203743939616834e+04  1.511651615276519465e+02
9.550000000000000000e+01  2.040083391237905744e+04  1.416417228383393478e+02
9.562500000000000000e+01  2.017546580952641307e+04  1.474154792013420092e+02
9.575000000000000000e+01  1.983501765050174799e+04  1.412827953775561411e+02
9.587500000000000000e+01  2.002592254640608735e+04  1.478098947042105067e+02
9.600000000000000000e+01  2.012223685340977681e+04  1.375913617593052152e+02
9.612500000000000000e+01  2.042287726368782751e+04  1.394418563936768862e+02
9.625000000000000000e+01  2.030999404550789768e+04  1.353338132711107846e+02
9.637500000000000000e+01  2.046914434667836395e+04  1.335060924815947203e+02
9.650000000000000000e+01  2.034995373202892006e+04  1.245233721130626776e+02
9.662500000000000000e+01  2.066649834552900938e+04  1.367293695786427463e+02
9.675000000000000000e+01  2.116176637716238110e+04  1.520149266100389980e+02
9.687500000000000000e+01  2.107090708880378224e+04  1.436389392680997332e+02
9.700000000000000000e+01  2.115342799596134500e+04  1.530207805734271744e+02
9.712500000000000000e+01  2.156992134540275219e+04  1.460162819634386437e+02
9.725000000000000000e+01  2.163166879942420564e+04  1.487775947783832180e+02
9.737500000000000000e+01  2.146203362745855338e+04  1.392904581931477708e+02
9.750000000000000000e+01  2.186576399338901683e+04  1.439877642692288475e+02
9.762500000000000000e+01  2.190722204075185437e+04  1.397492169469711314e+02
9.775000000000000000e+01  2.169276596725771014e+04  1.371833807588123761e+02
9.787500000000000000e+01  2.169729309835778622e+04  1.306970993472904752e+02
9.800000000000000000e+01  2.175251316381147990e+04  1.363559455450634346e+02
9.812500000000000000e+01  2.186135286643025393e+04  1.533158248128270884e+02
9.825000000000000000e+01  2.164113992065132334e+04  1.439133363595415460e+02
9.837500000000000000e+01  2.162161711724428096e+04  1.505572669470391531e+02
9.850000000000000000e+01  2.173479807304099086e+04  1.397425612867853886e+02
9.862500000000000000e+01  2.155557698472395714e+04  1.463490252987016333e+02
9.875000000000000000e+01  2.111230331370366912e+04  1.331907114990367518e+02
9.887500000000000000e+01  2.124442131687508663e+04  1.405098572881626353e+02
9.900000000000000000e+01  2.107456457337294705e+04  1.358772982184786713e+02
9.912500000000000000e+01  2.076070212599413935e+04  1.319370341028695748e+02
9.925000000000000000e+01  2.061368074956615601e+04  1.289362755290449911e+02
9.937500000000000000e+01  2.035095454801285450e+04  1.234616205243284810e+02
9.950000000000000000e+01  2.039464406016306384e+04  1.459181861118578638e+02
9.962500000000000000e+01  2.040974012910353485e+04  1.365482601026926659e+02
9.975000000000000000e+01  2.014301887104095658e+04  1.402171958321505087e+02
9.987500000000000000e+01  2.014287145945922748e+04  1.297005245635949393e+02
1.000000000000000000e+02  2.022353190323957097e+04  1.351754603032381965e+02
1.001250000000000000e+02  2.021514064771918493e+04  1.324309478260592527e+02
1.002500000000000000e+02  2.023414884350224747e+04  1.342485029230751366e+02
1.003750000000000000e+02  2.025479313212385750e+04  1.289460466812961954e+02
1.005000000000000000e+02  2.003486895772761636e+04  1.285052366360913538e+02
1.006250000000000000e+02  2.051027270257101918e+04  1.284907082283140483e+02
1.007500000000000000e+02  2.043467612802496660e+04  1.236400599262064333e+02
1.008750000000000000e+02  2.014565813474638344e+04  1.407617564309566092e+02
1.010000000000000000e+02  2.065421338642179035e+04  1.356220159262169318e+02
1.011250000000000000e+02  2.060122435130626400e+04  1.400439666855742473e+02
1.012500000000000000e+02  2.088136890474557731e+04  1.333463160431766141e+02
1.013750000000000000e+02  2.133141097874551997e+04  1.408389816760720521e+02
1.015000000000000000e+02  2.089432385745623833e+04  1.344750452520987949e+02
1.016250000000000000e+02  2.162436266267364044e+04  1.402170636839590827e+02
1.017500000000000000e+02  2.122411556488558927e+04  1.355405890688815873e+02
1.018750000000000000e+02  2.148629062081215307e+04  1.377581075631012482e+02
1.020000000000000000e+02  2.170345097441408143e+04  1.361715216664156856e+02
1.021250000000000000e+02  2.178527022191795186e+04  1.289204666929986729e+02
1.022500000000000000e+02  2.110455949348435388e+04  1.455313826267204718e+02
1.023750000000000000e+02  2.120393117841329149e+04  1.377459584917487234e+02
1.025000000000000000e+02  2.135581302290797612e+04  1.231870254983379454e+02
1.026250000000000000e+02  2.134697588261092096e+04  2.529326459625613097e+02
1.027500000000000000e+02  2.144498337362556049e+04  1.272592862591426837e+02
1.028750000000000000e+02  2.118493110259844616e+04  1.374920387924409795e+02
1.030000000000000000e+02  2.146237440669373245e+04  1.420850863584435331e+02
1.031250000000000000e+02  2.109884516106204319e+04  1.393703296994260370e+02
1.032500000000000000e+02  2.126389492204647104e+04  1.379290148831089482e+02
1.033750000000000000e+02  2.115984080207037914e+04  1.358831103177812452e+02
1.035000000000000000e+02  2.106629210010660245e+04  1.291851520360658299e+02
1.036250000000000000e+02  2.113685979399324424e+04  1.448715933093291426e+02
1.037500000000000000e+02  2.134887687860137521e+04  1.420766409757954136e+02
1.038750000000000000e+02  2.118503148528794918e+04  1.435457062169332687e+02
1.040000000000000000e+02  2.122836810240344857e+04  1.397813707603839930e+02
1.041250000000000000e+02  2.140863824820814261e+04  1.442714465917077007e+02
1.042500000000000000e+02  2.189114129020810651e+04  1.419409464495059581e+02
1.043750000000000000e+02  2.183453009110913990e+04  1.439194500801625054e+02
1.045000000000000000e+02  2.228133590321003430e+04  1.419711838537984079e+02
1.046250000000000000e+02  2.244660220057648257e+04  1.434295000713891000e+02
1.047500000000000000e+02  2.210263331091640430e+04  1.401626569583753792e+02
1.048750000000000000e+02  2.256663197398620832e+04  1.317727236208003205e+02
1.050000000000000000e+02  2.276178070186357945e+04  1.493129640524245474e+02
1.051250000000000000e+02  2.289877527544310578e+04  1.455335913782895716e+02
1.052500000000000000e+02  2.356301040442478916e+04  1.542902806015996475e+02
1.053750000000000000e+02  2.317235828120603765e+04  1.469226287085699596e+02
1.055000000000000000e+02  2.320488364455427654e+04  1.491296719355289326e+02
1.056250000000000000e+02  2.339056383558407833e+04  1.472649110990373060e+02
1.057500000000000000e+02  2.327320722464681967e+04  1.498071648438347268e+02
1.058750000000000000e+02  2.326501979910136288e+04  1.471526774332674279e+02
1.060000000000000000e+02  2.347178380897283205e+04  1.451588329679465517e+02
1.061250000000000000e+02  2.352952074067508147e+04  1.456412869998753763e+02
1.062500000000000000e+02  2.329689795602933737e+04  1.320854779281056892e+02
1.063750000000000000e+02  2.317610792745605431e+04  1.525933239087516995e+02
1.065000000000000000e+02  2.272997688490487417e+04  1.435790684406142930e+02
1.066250000000000000e+02  2.305221789273451941e+04  1.514366368168549855e+02
1.067500000000000000e+02  2.265321359178358034e+04  1.448710163817025318e+02
1.068750000000000000e+02  2.259990277974007768e+04  1.487769722121522875e+02
1.070000000000000000e+02  2.180240431189322771e+04  1.407427113731048678e+02
1.071250000000000000e+02  2.211622891330023776e+04  1.449971773731652434e+02
1.072500000000000000e+02  2.191178641719993902e+04  1.432724459123820679e+02
1.073750000000000000e+02  2.163985380268353038e+04  1.395016796982630467e+02
1.075000000000000000e+02  2.137867109825891021e+04  1.375068752403150540e+02
1.076250000000000000e+02  2.154465852842658933e+04  1.265473230934245947e+02
1.077500000000000000e+02  2.179939523333088437e+04  1.481444573384501666e+02
1.078750000000000000e+02  2.129731280270807110e+04  1.412339575571165824e+02
1.080000000000000000e+02  2.127534232018020703e+04  1.446532579486976715e+02
1.081250000000000000e+02  2.123758470994797608e+04  1.406061787322531984e+02
1.082500000000000000e+02  2.144895852435159031e+04  1.433759037172118838e+02
1.083750000000000000e+02  2.134385266914526801e+04  1.421250578520353542e+02
1.085000000000000000e+02  2.143280193306510409e+04  1.435375313482281001e+02
1.086250000000000000e+02  2.139073771734032925e+04  1.401323750337413969e+02
1.087500000000000000e+02  2.172022128180473737e+04  1.396286404180766851e+02
1.088750000000000000e+02  2.174304883384872301e+04  1.380907726652508529e+02
1.090000000000000000e+02  2.177969199128959008e+04  1.329959881063779221e+02
1.091250000000000000e+02  2.184876052242530568e+04  1.396521771343029457e+02
1.092500000000000000e+02  2.198183179182377353e+04  1.443707001461602317e+02
1.093750000000000000e+02  2.210656786233571620e+04  1.482260859632974643e+02
1.095000000000000000e+02  2.230207469700169895e+04  1.429649546328042788e+02
1.096250000000000000e+02  2.238657894082062194e+04  1.456070377900653625e+02
1.097500000000000000e+02  2.238566159252673606e+04  1.467667710398432348e+02
1.098750000000000000e+02  2.271672889859950374e+04  1.476607312742247018e+02
1.100000000000000000e+02  2.271957324742955825e+04  1.434218178199675719e+02
1.101250000000000000e+02  2.276139422919050776e+04  1.437345159942930479e+02
1.102500000000000000e+02  2.274708557756808295e+04  1.416171690464433652e+02
1.103750000000000000e+02  2.285257584434267847e+04  1.369424690433440617e+02
1.105000000000000000e+02  2.243865948357812158e+04  1.418351377682427312e+02
1.106250000000000000e+02  2.242746315254241199e+04  1.448501532856646747e+02
1.107500000000000000e+02  2.247648289470666714e+04  1.488802659717697736e+02
1.108750000000000000e+02  2.221298749745764144e+04  1.437289819258272132e+02
1.110000000000000000e+02  2.241128282267621034e+04  1.478013295848589621e+02
1.111250000000000000e+02  2.214243102149447441e+04  1.438002110487503842e+02
1.112500000000000000e+02  2.176963664974481435e+04  1.416602521057799322e+02
1.113750000000000000e+02  2.194979508013762097e+04  1.417769118390289123e+02
1.115000000000000000e+02  2.167761569630061422e+04  1.378699797317782725e+02
1.116250000000000000e+02  2.162138332005418488e+04  1.398073888529144426e+02
1.117500000000000000e+02  2.166471375790033198e+04  1.356191847596926436e+02
1.118750000000000000e+02  2.146106536336581848e+04  1.349752538576466634e+02
1.120000000000000000e+02  2.148418063546625854e+04  1.423167970316042101e+02
1.121250000000000000e+02  2.133520516998987296e+04  1.409285525202961935e+02
1.122500000000000000e+02  2.108391355458179896e+04  1.477800038554854609e+02
1.123750000000000000e+02  2.092574460196532891e+04  1.425103709959800256e+02
1.125000000000000000e+02  2.067637939413317144e+04  1.360612055761942543e+02
1.126250000000000000e+02  2.078890834614853884e+04  1.391348585245387710e+02
1.127500000000000000e+02  2.064832994504386807e+04  1.391730609755317687e+02
1.128750000000000000e+02  2.038558057324406764e+04  1.354800293769395978e+02
1.130000000000000000e+02  2.038850833246482580e+04  1.342046459804171548e+02
1.131250000000000000e+02  2.004301747517611147e+04  1.302263618943753158e+02
1.132500000000000000e+02  1.997356371792136997e+04  1.310763838946403439e+02
1.133750000000000000e+02  2.021604917348434174e+04  1.369392080793640503e+02
1.135000000000000000e+02  2.036324930290722477e+04  1.439863170778469907e+02
1.136250000000000000e+02  2.036531955129682683e+04  1.376223607081506088e+02
1.137500000000000000e+02  2.022275967014496928e+04  1.370947912422792569e+02
1.138750000000000000e+02  2.013803933135722036e+04  1.348391701187357796e+02
1.140000000000000000e+02  2.019246405832307937e+04  1.391426066764574614e+02
1.141250000000000000e+02  2.022348132684285156e+04  1.354568225822561089e+02
1.142500000000000000e+02  2.014563531532702109e+04  1.364309430870277993e+02
1.143750000000000000e+02  2.004623761402360105e+04  1.346082519040038505e+02
1.145000000000000000e+02  2.008472784972336012e+04  1.323427410604241174e+02
1.146250000000000000e+02  2.017320159233784216e+04  1.291907023064942734e+02
1.147500000000000000e+02  2.020939353076101906e+04  1.387169180852509385e+02
1.148750000000000000e+02  2.016702714718187417e+04  1.407291145259627001e+02
1.150000000000000000e+02  2.001575417147024928e+04  1.358069681426960074e+02
1.151250000000000000e+02  1.985925254121664693e+04  1.360957212528880973e+02
1.152500000000000000e+02  2.004242153227175004e+04  1.373671099272412732e+02
1.153750000000000000e+02  1.986338592160354892e+04  1.366448459894360496e+02
1.155000000000000000e+02  1.993121653029833033e+04  1.353830434006371775e+02
1.156250000000000000e+02  2.003775290799122740e+04  1.363838451228495501e+02
1.157500000000000000e+02  1.991839718101274411e+04  1.342288071654169528e+02
1.158750000000000000e+02  2.005854470546293305e+04  1.311828818489960327e+02
1.160000000000000000e+02  2.002305325993106817e+04  1.295753035115956209e+02
1.161250000000000000e+02  1.989579202338988398e+04  1.362693517328833366e+02
1.162500000000000000e+02  1.994048204008128232e+04  1.395155861741972956e+02
1.163750000000000000e+02  2.022507129728019208e+04  1.371672094071908248e+02
1.165000000000000000e+02  1.974230362267230521e+04  1.373845193829750428e+02
1.166250000000000000e+02  1.984188679738313658e+04  1.357156421242621889e+02
1.167500000000000000e+02  2.023458583196456675e+04  1.379858946890753089e+02
1.168750000000000000e+02  2.002277068346255692e+04  1.348403516992340769e+02
1.170000000000000000e+02  2.021553875643285937e+04  1.303008578355223221e+02
1.171250000000000000e+02  1.991010358517696295e+04  1.264190895184158450e+02
1.172500000000000000e+02  1.988551386672314766e+04  1.439392907614173964e+02
1.173750000000000000e+02  1.998628997899267051e+04  1.210867850396808620e+02
1.175000000000000000e+02  2.000280397245529821e+04  1.740690968926734286e+02
1.176250000000000000e+02  2.000328678670572845e+04  1.502351275157239741e+02
1.177500000000000000e+02  2.011915341306277696e+04  1.286232092153028645e+02
1.178750000000000000e+02  2.028397460954919370e+04  1.392452433395405365e+02
1.180000000000000000e+02  2.002026854272667697e+04  1.366802105614367520e+02
1.181250000000000000e+02  1.997884401185048046e+04  1.359765917443218370e+02
1.182500000000000000e+02  1.998836550378318498e+04  1.350565236742106947e+02
1.183750000000000000e+02  2.000804673416674996e+04  1.353657484291610160e+02
1.185000000000000000e+02  2.011839755813418014e+04  1.356135538980880995e+02
1.186250000000000000e+02  2.012168634164815376e+04  1.335287957060394035e+02
1.187500000000000000e+02  2.019106136598946614e+04  1.276969306724400610e+02
1.188750000000000000e+02  2.020086731031152522e+04  1.366640332823117774e+02
1.190000000000000000e+02  2.018770101927492215e+04  1.389679863812476412e+02
1.191250000000000000e+02  2.017711748469864324e+04  1.366472812569060693e+02
1.192500000000000000e+02  2.026838006055547885e+04  1.399617839008293174e+02
1.193750000000000000e+02  2.038979299009583701e+04  1.355978899765243000e+02
1.195000000000000000e+02  2.026279519384351806e+04  1.377497427881909573e+02
1.196250000000000000e+02  2.039353070353085059e+04  1.371972537071914076e+02
1.197500000000000000e+02  2.037352267964062048e+04  1.375365497904833205e+02
1.198750000000000000e+02  2.051958196022189077e+04  1.352727127524101718e+02
1.200000000000000000e+02  2.066905223053762529e+04  1.346610934529025201e+02
1.201250000000000000e+02  2.074343709786285399e+04  1.301559002557228553e+02
1.202500000000000000e+02  2.078500651498460502e+04  1.360503737276343372e+02
1.203750000000000000e+02  2.056693556475541845e+04  1.416624952961331871e+02
1.205000000000000000e+02  2.095811277976780184e+04  1.383712934487523114e+02
1.206250000000000000e+02  2.127483853648763034e+04  1.431845780092925793e+02
1.207500000000000000e+02  2.116641090192036063e+04  1.405328426139595877e+02
1.208750000000000000e+02  2.150111606046741508e+04  1.421330363716183172e+02
1.210000000000000000e+02  2.182963302214155556e+04  1.411480639159191242e+02
1.211250000000000000e+02  2.202457629014100530e+04  1.410383691345115835e+02
1.212500000000000000e+02  2.215236902592280967e+04  1.396743468632982683e+02
1.213750000000000000e+02  2.226010702836481505e+04  1.415031047666278141e+02
1.215000000000000000e+02  2.230353445289334559e+04  1.362227314440200985e+02
1.216250000000000000e+02  2.233285379610997552e+04  1.389790326198717310e+02
1.217500000000000000e+02  2.323712546178234697e+04  1.491675503585456113e+02
1.218750000000000000e+02  2.321343715972908467e+04  1.476617220868307072e+02
1.220000000000000000e+02  2.328072931753848752e+04  1.487867526221700984e+02
1.221250000000000000e+02  2.331408115042840291e+04  1.467862921334320276e+02
1.222500000000000000e+02  2.358025256087766320e+04  1.492570527934850872e+02
1.223750000000000000e+02  2.363293182744625665e+04  1.452252763509115709e+02
1.225000000000000000e+02  2.403894055574365848e+04  1.497935032575806247e+02
1.226250000000000000e+02  2.417833846102593816e+04  1.472592615361272692e+02
1.227500000000000000e+02  2.467169824152109140e+04  1.467462011038419405e+02
1.228750000000000000e+02  2.463707092586210274e+04  1.459399735149279422e+02
1.230000000000000000e+02  2.471647151604640021e+04  1.440171891740825743e+02
1.231250000000000000e+02  2.497369615636840172e+04  1.555578426297069541e+02
1.232500000000000000e+02  2.491615628680012014e+04  1.524216176557220024e+02
1.233750000000000000e+02  2.537309776303478429e+04  1.554585218190882756e+02
1.235000000000000000e+02  2.523930521139147095e+04  1.525513996963929060e+02
1.236250000000000000e+02  2.560237288662411811e+04  1.534479897562436861e+02
1.237500000000000000e+02  2.555265663252403465e+04  1.527827417367208511e+02
1.238750000000000000e+02  2.565571782728018297e+04  1.552726241996037118e+02
1.240000000000000000e+02  2.576263873665731080e+04  1.503453951949754241e+02
1.241250000000000000e+02  2.573996741013345672e+04  1.504361199119441324e+02
1.242500000000000000e+02  2.565016823321980701e+04  1.500292057771637246e+02
1.243750000000000000e+02  2.552814303807390752e+04  1.464765931513454404e+02
1.245000000000000000e+02  2.583185618178534423e+04  1.613923716007539042e+02
1.246250000000000000e+02  2.563306372864165314e+04  1.526805773268089013e+02
1.247500000000000000e+02  2.559974253301387944e+04  1.568883838471267040e+02
1.248750000000000000e+02  2.528985747001730851e+04  1.497569027217764983e+02
1.250000000000000000e+02  2.523061388421953598e+04  1.550694468130040491e+02
1.251250000000000000e+02  2.498651700340503885e+04  1.497972166732207597e+02
1.252500000000000000e+02  2.486301113147466094e+04  1.527899307388744887e+02
1.253750000000000000e+02  2.489571619186484168e+04  1.501951032892863225e+02
1.255000000000000000e+02  2.469244096738266671e+04  1.490311418862477808e+02
1.256250000000000000e+02  2.443086528337185155e+04  1.460832355881865396e+02
1.257500000000000000e+02  2.426926636094580681e+04  1.411791481881635946e+02
1.258750000000000000e+02  2.403887449178308816e+04  1.520595230322728639e+02
1.260000000000000000e+02  2.406536441652530630e+04  1.484385533747644104e+02
1.261250000000000000e+02  2.374591238051867185e+04  1.510488210127389266e+02
1.262500000000000000e+02  2.372393531735521537e+04  1.466257358684478334e+02
1.263750000000000000e+02  2.292286681560861325e+04  1.479818846228896234e+02
1.265000000000000000e+02  2.327304970739096825e+04  1.447906971383509642e+02
1.266250000000000000e+02  2.297619436725675405e+04  1.455501949433324853e+02
1.267500000000000000e+02  2.274958390773190331e+04  1.443814289247909812e+02
1.268750000000000000e+02  2.248484665797651178e+04  1.421668554095277557e+02
1.270000000000000000e+02  2.229790429330810002e+04  1.409623194491958884e+02
1.271250000000000000e+02  2.222139028182721449e+04  1.359214490227644490e+02
1.272500000000000000e+02  2.205128562480938490e+04  1.430033637836873766e+02
1.273750000000000000e+02  2.167634726300010152e+04  1.421132500127727951e+02
1.275000000000000000e+02  2.153974763580821673e+04  1.433183241312858627e+02
1.276250000000000000e+02  2.148709592344882185e+04  1.388317186597332409e+02
1.277500000000000000e+02  2.127720052793401192e+04  1.422341402187023505e+02
1.278750000000000000e+02  2.125766065748927940e+04  1.394642269203643536e+02
1.280000000000000000e+02  2.119730803009948795e+04  1.411680216286621317e+02
1.281250000000000000e+02  2.094079857469271883e+04  1.375750231759005260e+02
1.282500000000000000e+02  2.088959084609612910e+04  1.383204303936342683e+02
1.283750000000000000e+02  2.081362542172949543e+04  1.357962378668887311e+02
1.285000000000000000e+02  2.076623084864261182e+04  1.306000596280769628e+02
1.286250000000000000e+02  2.060930684570519225e+04  1.402188343757663915e+02
1.287500000000000000e+02  2.051419870781746431e+04  1.363589022225586120e+02
1.288750000000000000e+02  2.074240982870036169e+04  1.419282189730983532e+02
1.290000000000000000e+02  2.071679289899760624e+04  1.382348827712453385e+02
1.291250000000000000e+02  2.070648932760599928e+04  1.404548180583782937e+02
1.292500000000000000e+02  2.037609929721223671e+04  1.359010758878845877e+02
1.293750000000000000e+02  2.049364850788827971e+04  1.386479458596680274e+02
1.295000000000000000e+02  2.054352582853842250e+04  1.383096691000927763e+02
1.296250000000000000e+02  2.064217219678177935e+04  1.355341843668521449e+02
1.297500000000000000e+02  2.050277026685267629e+04  1.357382697344222606e+02
1.298750000000000000e+02  2.056282004701986443e+04  1.292160682856256528e+02
1.300000000000000000e+02  2.051153420612769696e+04  1.407443964949960389e+02
1.301250000000000000e+02  2.050457473069811385e+04  1.376238943151134038e+02
1.302500000000000000e+02  2.068478945466997902e+04  1.411314674114598517e+02
1.303750000000000000e+02  2.037666725969998151e+04  1.371987288113085413e+02
1.305000000000000000e+02  2.051800377796235261e+04  1.396137965193882735e+02
1.306250000000000000e+02  2.068574624795990530e+04  1.397016037834116844e+02
1.307500000000000000e+02  2.043445967662871772e+04  1.379416339792325346e+02
1.308750000000000000e+02  2.033016769732105240e+04  1.374005029615818785e+02
1.310000000000000000e+02  2.021719196053923588e+04  1.358634394200216775e+02
1.311250000000000000e+02  2.037027547154412605e+04  1.380124037339402037e+02
1.312500000000000000e+02  2.025062240002049657e+04  1.305242809222646656e+02
1.313750000000000000e+02  2.059122989387562484e+04  1.468817574661899528e+02
1.315000000000000000e+02  2.018511109098252564e+04  1.395765926486979538e+02
1.316250000000000000e+02  2.061169840624606513e+04  1.458707600349663664e+02
1.317500000000000000e+02  2.032143658026621415e+04  1.519999795140866183e+02
1.318750000000000000e+02  2.040838587440147967e+04  1.729462124120729527e+02
1.320000000000000000e+02  2.071727443490023143e+04  4.632523394495547109e+02
